-1.25 	300 	0.0720709261816178 	101295.6107373854
-1.247497497497497 	299.9788249649089 	0.05968836842582438 	101301.3304257498
-1.244994994994995 	299.9853205976622 	0.04186527923890481 	101307.6421680507
-1.242492492492492 	299.9906863081991 	0.02744669854586472 	101313.9856427834
-1.23998998998999 	299.9963091183565 	0.01039695468965614 	101320.6359640346
-1.237487487487487 	300.0020553330093 	0.008345278757107522 	101327.4288991811
-1.234984984984985 	300.0077587969558 	0.02251584904541395 	101334.1718196624
-1.232482482482482 	300.0133448503581 	0.03865061206448311 	101340.7762058769
-1.22997997997998 	300.0187262496311 	0.05414139240166953 	101347.1389039426
-1.227477477477477 	300.0237492762652 	0.06863610004966439 	101353.0781797052
-1.224974974974975 	300.0283174866101 	0.08188187709767862 	101358.4798978423
-1.222472472472472 	300.0324144687769 	0.09369115592637572 	101363.3246119855
-1.21996996996997 	300.0358979316502 	0.1037453514554752 	101367.4440155937
-1.217467467467467 	300.0386511571083 	0.1117382616911911 	101370.6999341173
-1.214964964964965 	300.0406861376583 	0.1176429364081737 	101373.1065426196
-1.212462462462462 	300.0420061754797 	0.1215038625553397 	101374.6676887411
-1.20995995995996 	300.0425785162274 	0.1231441502180594 	101375.3445918593
-1.207457457457457 	300.0423746364706 	0.1225027019956554 	101375.1035253036
-1.204954954954955 	300.0413732207374 	0.1195720018865102 	101373.9193302816
-1.202452452452452 	300.0395728658521 	0.1143418435951071 	101371.7903631942
-1.19994994994995 	300.0369946749212 	0.1069261949231946 	101368.741559937
-1.197447447447447 	300.0337260440475 	0.09748866894206878 	101364.87631207
-1.194944944944945 	300.0298680340943 	0.0863064389593179 	101360.3142439918
-1.192442442442442 	300.025484938655 	0.07363215316028748 	101355.1314505969
-1.18993993993994 	300.0206426810548 	0.05968831164091862 	101349.4058927383
-1.187437437437437 	300.0154436236024 	0.04468234418274895 	101343.25871691
-1.184934934934935 	300.0099608233267 	0.02879627129251269 	101336.7763172742
-1.182432432432432 	300.0042946959255 	0.01239711827747804 	101330.0774760402
-1.17992992992993 	299.9985796423698 	0.00848181876963507 	101323.3211254815
-1.177427427427427 	299.9928854270132 	0.02064511353788082 	101316.5896898198
-1.174924924924925 	299.987282871434 	0.03683200507954983 	101309.9669330474
-1.172422422422422 	299.9818778603811 	0.05241926616628236 	101303.5779536534
-1.16991991991992 	299.9767881343241 	0.06709866072292467 	101297.5619288718
-1.167417417417417 	299.9721340596441 	0.08053874055029631 	101292.0610688137
-1.164914914914915 	299.9680199875138 	0.09245179910726251 	101287.1985875099
-1.162412412412412 	299.9645193087078 	0.1025770611753496 	101283.0612260234
-1.15990990990991 	299.9616753836046 	0.1107927254436336 	101279.7001175479
-1.157407407407407 	299.959515445475 	0.1170511272756543 	101277.147417329
-1.154904904904904 	299.9580782944524 	0.1212053447704205 	101275.4489041667
-1.152402402402403 	299.9574250094577 	0.1231019131126078 	101274.6767848139
-1.1498998998999 	299.9575884004661 	0.1226140836758045 	101274.8698649782
-1.147397397397397 	299.9585610415622 	0.119752974502325 	101276.0192278688
-1.144894894894895 	299.9603168116873 	0.1146677826857112 	101278.0941136847
-1.142392392392392 	299.9628051885655 	0.107491478941089 	101281.0348726411
-1.13988988988989 	299.9659582817759 	0.09838506631389565 	101284.7612470202
-1.137387387387387 	299.9697235771934 	0.08749201954863998 	101289.2113167949
-1.134884884884885 	299.9740441601597 	0.07498523914964747 	101294.3178156896
-1.132382382382382 	299.9788444621635 	0.06112138855558145 	101299.991542237
-1.12987987987988 	299.984030863762 	0.04616653864304475 	101306.121910945
-1.127377377377377 	299.9894849446847 	0.03043458194957418 	101312.5689267527
-1.124874874874875 	299.9950817377946 	0.01421471857958578 	101319.1849862377
-1.122372372372372 	300.0007375560282 	0.008362775229874036 	101325.8711150102
-1.11986986986987 	300.0064065032948 	0.01861302483851293 	101332.5731113878
-1.117367367367367 	300.0120124761255 	0.03479346424643977 	101339.2009989477
-1.114864864864865 	300.0174249061313 	0.05041212080144274 	101345.6003222952
-1.112362362362362 	300.0225166169064 	0.06511547594417501 	101351.6207566174
-1.10985985985986 	300.0271883699327 	0.07861428010526259 	101357.1448449792
-1.107357357357357 	300.031350118784 	0.09061343665096265 	101362.0660944898
-1.104854854854855 	300.0349283907489 	0.1009633338401116 	101366.29755546
-1.102352352352353 	300.0378803136472 	0.1094918282852591 	101369.7883978102
-1.09984984984985 	300.0401552821675 	0.1160670446828972 	101372.4788042738
-1.097347347347347 	300.0417021994779 	0.1205668153306034 	101374.308242041
-1.094844844844845 	300.0424759670307 	0.1227728435797847 	101375.223372225
-1.092342342342342 	300.0424393998136 	0.1226460986934604 	101375.1801663722
-1.08983983983984 	300.0415857460364 	0.1201814937507892 	101374.1706925989
-1.087337337337337 	300.0399560195482 	0.1154563073217533 	101372.2435225809
-1.084834834834835 	300.0375885751934 	0.1086327971260683 	101369.4439155559
-1.082332332332332 	300.0345321089831 	0.09978214814636582 	101365.8295516469
-1.07982982982983 	300.0308425862309 	0.08910097484518345 	101361.4667121452
-1.077327327327327 	300.0265832071006 	0.0767864375294197 	101356.4301338611
-1.074824824824825 	300.0218332341291 	0.06308576700679921 	101350.8136613529
-1.072322322322323 	300.0167035028719 	0.04827075075902787 	101344.7483919131
-1.06981981981982 	300.0112762244237 	0.03254880346058622 	101338.331564816
-1.067317317317317 	300.0056538922153 	0.01628622140292927 	101331.6844482592
-1.064814814814815 	299.9999416675245 	0.008171375851590199 	101324.9313448396
-1.062312312312312 	299.9942016842293 	0.01686969918103793 	101318.1457400685
-1.05980980980981 	299.9885341969233 	0.03320954419953116 	101311.4461575356
-1.057307307307307 	299.9830722317556 	0.04896817689700478 	101304.9897908343
-1.054804804804805 	299.9779367183062 	0.06379832872521583 	101298.9195944166
-1.052302302302302 	299.9732284237186 	0.07743055516755007 	101293.3545832968
-1.0497997997998 	299.9690153964156 	0.08965016704817147 	101288.3751172673
-1.047297297297297 	299.9653555735004 	0.1002158023666182 	101284.0496393427
-1.044794794794795 	299.9623190283285 	0.1089751000700699 	101280.4608647359
-1.042292292292292 	299.959977134242 	0.1157325085561038 	101277.6931266577
-1.03978978978979 	299.9583923683225 	0.1203013444477915 	101275.8201351936
-1.037287287287287 	299.9576045713996 	0.1225898873461899 	101274.8890586399
-1.034784784784785 	299.9576158198603 	0.1225284361313345 	101274.9023345468
-1.032282282282283 	299.9584132770851 	0.1201870561922526 	101275.8446728671
-1.02977977977978 	299.9599770516598 	0.115670852745723 	101277.6926658506
-1.027277277277277 	299.9622731773368 	0.1090463306064044 	101280.406182496
-1.024774774774775 	299.9652621375274 	0.1004315357068446 	101283.9385721776
-1.022272272272272 	299.968894951983 	0.08993205196130569 	101288.2320217253
-1.01976976976977 	299.9730973473678 	0.07776017168484209 	101293.1987848798
-1.017267267267267 	299.9777885049479 	0.064197843944826 	101298.7434712523
-1.014764764764765 	299.9828748065272 	0.04950207030796536 	101304.7554460221
-1.012262262262262 	299.9882488844606 	0.03396984353148565 	101311.1078443243
-1.00975975975976 	299.9938061401015 	0.01786671694111118 	101317.6770937558
-1.007257257257257 	299.999451420758 	0.007607559011753204 	101324.3506920135
-1.004754754754755 	300.0051111468086 	0.0148642071717278 	101331.0417203666
-1.002252252252252 	300.0107017585441 	0.03098431309531691 	101337.6513597601
-0.9997497497497498 	300.0161034515133 	0.04656473833112082 	101344.0379307415
-0.9972472472472473 	300.0212184177759 	0.06135406534999877 	101350.0857912661
-0.9947447447447449 	300.0259678462831 	0.07509084161181555 	101355.7016694104
-0.9922422422422421 	300.0302634731081 	0.08747569436174644 	101360.7811668654
-0.9897397397397399 	300.0340147754663 	0.09832751555589361 	101365.2171886359
-0.9872372372372376 	300.0371497411658 	0.1073732122937165 	101368.9244832978
-0.9847347347347346 	300.0395907515743 	0.1144696919521351 	101371.8112242268
-0.9822322322322323 	300.041298454771 	0.1194543755399158 	101373.8308166405
-0.9797297297297296 	300.0422484677097 	0.1221377091015765 	101374.9543662143
-0.9772272272272275 	300.0424112747596 	0.1225678692834086 	101375.1469300399
-0.9747247247247248 	300.0417715313402 	0.1207045219448603 	101374.3904281029
-0.9722222222222224 	300.0403551823231 	0.1166076679671806 	101372.7155836662
-0.9697197197197196 	300.0381743125337 	0.1103357799997604 	101370.1366323277
-0.9672172172172175 	300.0352829814025 	0.1019442151386781 	101366.7175227606
-0.9647147147147147 	300.031742883302 	0.09169247608071873 	101362.5313287038
-0.9622122122122124 	300.0276173815932 	0.0797826222397448 	101357.6530434403
-0.9597097097097099 	300.0229830983132 	0.0664533773240096 	101352.1733162058
-0.9572072072072073 	300.0179364267996 	0.05185613448013476 	101346.2062043803
-0.9547047047047047 	300.0125411526201 	0.03621252332560617 	101339.8271570204
-0.9522022022022023 	300.0069202414593 	0.01995548258800825 	101333.1816238188
-0.9496996996996998 	300.0012058340466 	0.007012003404909193 	101326.4258896848
-0.9471971971971973 	299.9954775716226 	0.01317491513671762 	101319.6540723106
-0.9446946946946947 	299.9898203061079 	0.02951038348858152 	101312.9664966764
-0.9421921921921923 	299.9843358300946 	0.04532447408774577 	101306.4834661145
-0.93968968968969 	299.9791323533881 	0.06033466336790464 	101300.3328552532
-0.9371871871871872 	299.9743108747971 	0.07429235770009497 	101294.6340278602
-0.9346846846846848 	299.9699594924634 	0.08688784414857662 	101289.4910044176
-0.9321821821821823 	299.9661623566066 	0.09786263924321947 	101285.0031973059
-0.9296796796796799 	299.962995615157 	0.1070098237706351 	101281.2605441592
-0.9271771771771771 	299.9605214145535 	0.1141498355076947 	101278.3364156432
-0.9246746746746748 	299.9587917846016 	0.1191718542182363 	101276.2922336188
-0.9221721721721724 	299.9578361290192 	0.1219388027549693 	101275.1627712714
-0.9196696696696698 	299.957665281629 	0.1223917685065665 	101274.9608355374
-0.9171671671671672 	299.9582831509117 	0.1205623790452669 	101275.6909707116
-0.9146646646646649 	299.9596741964945 	0.1165293960564405 	101277.3348014182
-0.9121621621621623 	299.9618024630251 	0.1103995419328025 	101279.84994671
-0.9096596596596597 	299.9646278474733 	0.102253761878301 	101283.1890107782
-0.9071571571571573 	299.9680976945249 	0.0922161145478079 	101287.2898089532
-0.9046546546546547 	299.9721515991882 	0.08046946209960582 	101292.0810557389
-0.9021521521521524 	299.9767243532973 	0.06726595976232214 	101297.4857244478
-0.8996496496496498 	299.9817213637718 	0.05285925668262911 	101303.3921071029
-0.8971471471471473 	299.9870281485843 	0.03751621290272733 	101309.664906802
-0.894644644644645 	299.9925352227333 	0.02155668929492664 	101316.1747490795
-0.892142142142142 	299.9981323624818 	0.005957191144901848 	101322.7913858995
-0.8896396396396397 	300.0037480734425 	0.01092629763387232 	101329.4302883054
-0.8871371371371374 	300.0093198149356 	0.0269906475129184 	101336.0175398097
-0.8846346346346349 	300.0147423979154 	0.04265383826681543 	101342.4287423578
-0.8821321321321324 	300.0199252953764 	0.05764836909294279 	101348.5568316231
-0.8796296296296297 	300.0247758308366 	0.07166590693963924 	101354.2922161842
-0.8771271271271271 	300.0291862335142 	0.08438052680135955 	101359.5073788053
-0.8746246246246248 	300.0330665379973 	0.09559037023771871 	101364.0959036187
-0.8721221221221224 	300.0363455291975 	0.1050591039577718 	101367.9734909127
-0.8696196196196196 	300.0389489636379 	0.1126465737572603 	101371.0522736762
-0.8671171171171175 	300.0408428881312 	0.1181488761152525 	101373.292087555
-0.8646146146146148 	300.0419893974397 	0.1213890988887605 	101374.6480211661
-0.8621121121121121 	300.0423454193829 	0.1223912163586303 	101375.0690968278
-0.8596096096096097 	300.0419070404683 	0.12110799306001 	101374.5506935755
-0.857107107107107 	300.0406918674683 	0.1176010579647379 	101373.1137471083
-0.8546046046046049 	300.0387108681014 	0.111900263511563 	101370.7711666808
-0.8521021021021022 	300.03601238868 	0.1040562833830214 	101367.5801092895
-0.8495995995995997 	300.0326404962087 	0.09427555848645272 	101363.5927993953
-0.8470970970970974 	300.0286391893204 	0.08274432690770958 	101358.8613327482
-0.8445945945945946 	300.0240988458153 	0.06968442124679476 	101353.4926253166
-0.8420920920920922 	300.0191135258287 	0.05526934878686993 	101347.5980106407
-0.8395895895895897 	300.0137687916845 	0.03979225167014602 	101341.2786551686
-0.8370870870870872 	300.0081968965858 	0.02365878948244683 	101334.691019519
-0.8345845845845846 	300.002523510246 	0.007213700742653447 	101327.9836976386
-0.8320820820820823 	299.9968147523031 	0.01044158365212843 	101321.2348536641
-0.8295795795795798 	299.991140352336 	0.02568329342113498 	101314.5269659794
-0.8270770770770772 	299.9856008681346 	0.04164982715153864 	101307.9788378905
-0.8245745745745746 	299.9803190707542 	0.05690896144850051 	101301.7356024013
-0.8220720720720721 	299.9754019271265 	0.07114380976147423 	101295.9236421929
-0.8195695695695699 	299.9709391173704 	0.08405695109864997 	101290.6488649031
-0.817067067067067 	299.9670142867819 	0.09537746145829534 	101286.0101173252
-0.8145645645645651 	299.9637107070035 	0.1049275097113093 	101282.105710066
-0.8120620620620621 	299.9610885374512 	0.1125184606942753 	101279.0067082078
-0.8095595595595597 	299.9592039008483 	0.117983167589971 	101276.7793439897
-0.8070570570570572 	299.9580867695407 	0.1212120935422082 	101275.4590108958
-0.8045545545545546 	299.9577507766883 	0.122131301803127 	101275.0619279075
-0.8020520520520523 	299.9581950541221 	0.1208134995012059 	101275.5869098785
-0.7995495495495494 	299.959407953396 	0.1173225943428491 	101277.0202273417
-0.7970470470470474 	299.9613539842355 	0.1116997095011073 	101279.3199859098
-0.7945445445445446 	299.9640102325779 	0.1040291856165222 	101282.4591322582
-0.7920420420420423 	299.9673344190828 	0.09439795822597467 	101286.3877745235
-0.7895395395395397 	299.9712715060959 	0.08301750069848697 	101291.0409101608
-0.7870370370370371 	299.9757400021261 	0.07013144057236162 	101296.3223197381
-0.7845345345345348 	299.980642836781 	0.05598779257331447 	101302.1173284299
-0.7820320320320323 	299.9858604756086 	0.04088253507075467 	101308.2846880339
-0.7795295295295296 	299.9912990302171 	0.02512039406347883 	101314.7134895571
-0.7770270270270272 	299.9968463162974 	0.009047518463247651 	101321.271097332
-0.7745245245245247 	300.0024269476089 	0.009582548702220601 	101327.8684710578
-0.7720220220220222 	300.0079789563391 	0.0231391607929291 	101334.4323138924
-0.7695195195195199 	300.0134150596198 	0.03885053028648089 	101340.8594135251
-0.767017017017017 	300.018647636118 	0.05394266189528374 	101347.046200383
-0.7645145145145147 	300.0235735025417 	0.06815421709415438 	101352.8705635949
-0.7620120120120122 	300.0280826880068 	0.08116531855468223 	101358.202498481
-0.7595095095095097 	300.0320895002711 	0.09277257546037046 	101362.940574537
-0.7570070070070072 	300.0355122309713 	0.1026782124765612 	101366.9880865661
-0.7545045045045048 	300.0382831326733 	0.1107071972808697 	101370.2649237775
-0.7520020020020022 	300.0403546579239 	0.1166977602929559 	101372.7147210693
-0.7494994994994997 	300.0416774380856 	0.1204817823471826 	101374.2791181381
-0.7469969969969972 	300.0422195338347 	0.1220793391150842 	101374.9202734055
-0.7444944944944945 	300.0419913310436 	0.1213767846077755 	101374.6503797041
-0.7419919919919924 	300.0409875351879 	0.1184295467600756 	101373.4634337427
-0.7394894894894897 	300.0392123309559 	0.1132992233570859 	101371.3641930025
-0.7369869869869872 	300.0366934262919 	0.1059804963748996 	101368.3854865491
-0.7344844844844846 	300.0334710535347 	0.09670273847639353 	101364.5749893507
-0.7319819819819822 	300.0296057602609 	0.08557464070897831 	101360.0042941166
-0.7294794794794797 	300.0252020181144 	0.07283643930599211 	101354.7971043963
-0.7269769769769773 	300.0203251163445 	0.05876255749511308 	101349.0305978313
-0.7244744744744747 	300.0150675084409 	0.04355264611508932 	101342.8141999664
-0.721971971971972 	300.0095459767411 	0.0275976126664588 	101336.2860597002
-0.7194694694694695 	300.0038851253178 	0.01117532979222462 	101329.5934558814
-0.7169669669669674 	299.9981713717199 	0.009092193048862692 	101322.8386620308
-0.7144644644644647 	299.9924761488817 	0.02185504963098873 	101316.1060603377
-0.711961961961962 	299.9868819509337 	0.03796159118794094 	101309.4931938828
-0.7094594594594597 	299.9815263726794 	0.05340294508624984 	101303.1626983934
-0.7069569569569573 	299.9765198241064 	0.06792144843444467 	101297.2449814317
-0.7044544544544545 	299.9719509619195 	0.08115535802183017 	101291.8448408578
-0.7019519519519523 	299.9679032358644 	0.09278631956022916 	101287.0607867154
-0.6994494494494495 	299.9644703996763 	0.1027008402568693 	101283.0035990531
-0.6969469469469471 	299.9617045098123 	0.110679439615859 	101279.7347388685
-0.6944444444444446 	299.9596735563737 	0.1166382768911314 	101277.3344525411
-0.6919419419419421 	299.958387298388 	0.1204092774371993 	101275.8142348403
-0.6894394394394396 	299.957859221595 	0.1218353408862878 	101275.1901292401
-0.6869369369369374 	299.958110280825 	0.121039064050607 	101275.4867896855
-0.6844344344344344 	299.9591606867854 	0.1180221134331002 	101276.7280623956
-0.6819319319319321 	299.9609566171065 	0.1128675890818576 	101278.8504346139
-0.6794294294294296 	299.9634741327593 	0.1056331091988757 	101281.8256163866
-0.6769269269269272 	299.9666389476035 	0.09639003629783802 	101285.5658662751
-0.6744244244244245 	299.9704105231423 	0.08544292099981546 	101290.0233768062
-0.6719219219219222 	299.9747322873163 	0.07299174637392035 	101295.1313008234
-0.6694194194194195 	299.9795292518033 	0.05926349681698558 	101300.8011279503
-0.6669169169169172 	299.9846533628836 	0.04443209690575337 	101306.8578788652
-0.6644144144144146 	299.9900339785095 	0.02878041831700921 	101313.2180967509
-0.661911911911912 	299.9955324109737 	0.01283308874492369 	101319.7179226915
-0.6594094094094097 	300.0010694690347 	0.007717469615757439 	101326.2636812839
-0.656906906906907 	300.006609969438 	0.01917813644105287 	101332.8138434441
-0.6544044044044046 	300.0120660832633 	0.03494668648012526 	101339.2645413683
-0.6519019019019021 	300.017343688998 	0.05022632920075302 	101345.5044622994
-0.6493993993993996 	300.0223425700589 	0.06463620559770339 	101351.4151403466
-0.6468968968968971 	300.0269467439289 	0.07790862347795179 	101356.8593058609
-0.6443943943943946 	300.031076868565 	0.08982966142942533 	101361.7431546505
-0.6418918918918921 	300.0346354871973 	0.1001213172792897 	101365.9513492088
-0.6393893893893897 	300.0375531022244 	0.1086467201971449 	101369.4016233475
-0.6368868868868871 	300.0397896224309 	0.1151123536010153 	101372.0465662516
-0.6343843843843846 	300.0413066780102 	0.1194189019827864 	101373.8406810435
-0.6318818818818821 	300.0420576427788 	0.1216112765083298 	101374.7288449448
-0.6293793793793795 	300.0420546151268 	0.1215631133023154 	101374.7252711569
-0.6268768768768773 	300.0412656491405 	0.1193054236302538 	101373.7923188907
-0.6243743743743745 	300.0396888339592 	0.1147233979671063 	101371.9275338155
-0.6218718718718721 	300.0373322674525 	0.1078343721818908 	101369.1407967021
-0.6193693693693696 	300.0342387950068 	0.09889255678299447 	101365.4828234158
-0.6168668668668671 	300.0304705804945 	0.0880803097565951 	101361.0269831035
-0.6143643643643645 	300.0261712326866 	0.07568762548925448 	101355.9431703294
-0.6118618618618621 	300.0213983930994 	0.06188928487499141 	101350.2996708835
-0.6093593593593596 	300.0162431544671 	0.04693425397360604 	101344.2042708716
-0.6068568568568571 	300.0107855337605 	0.03115599362021319 	101337.751596723
-0.6043543543543546 	300.0051436157968 	0.01483419202960191 	101331.0813456631
-0.6018518518518521 	299.9994151143689 	0.00696784155192565 	101324.3090274004
-0.5993493493493496 	299.9936861360923 	0.01829500600280275 	101317.5364580596
-0.5968468468468471 	299.9880745595114 	0.03450549305413745 	101310.9029983077
-0.5943443443443446 	299.982698710032 	0.05004538206290318 	101304.5484477314
-0.591841841841842 	299.9776509388891 	0.06464772835344459 	101298.5819725436
-0.5893393393393397 	299.9730046438311 	0.07807983439888265 	101293.0902500124
-0.5868368368368371 	299.9688308538584 	0.09013555990413187 	101288.1571701687
-0.5843343343343346 	299.9652164140987 	0.1005650035840277 	101283.8853356408
-0.5818318318318321 	299.9622566538455 	0.109102757822939 	101280.3873139973
-0.5793293293293297 	299.9600411069378 	0.115496437630664 	101277.7688714477
-0.5768268268268271 	299.9586295644095 	0.1195757253149307 	101276.1005748085
-0.5743243243243245 	299.9580303833561 	0.1213223833492821 	101275.3924394046
-0.5718218218218221 	299.9582038548119 	0.1208332131725315 	101275.5974156936
-0.5693193193193196 	299.9590922341718 	0.1182715733493258 	101276.6472275496
-0.5668168168168171 	299.9606496429439 	0.1137616207467883 	101278.4876970213
-0.5643143143143147 	299.962861484384 	0.1073406303686187 	101281.1016266323
-0.5618118118118121 	299.965739019431 	0.09899363673550861 	101284.5023389644
-0.5593093093093094 	299.9692915967957 	0.08870033126778189 	101288.700962544
-0.5568068068068072 	299.973497260987 	0.07653436788909149 	101293.6716243184
-0.5543043043043046 	299.9782797195031 	0.06272478255269651 	101299.3242180174
-0.551801801801802 	299.9834982755794 	0.04767108997541775 	101305.4925462232
-0.5492992992992995 	299.9889650587993 	0.03190295796448239 	101311.9545809747
-0.5467967967967969 	299.994487708567 	0.01595905160141229 	101318.4829678372
-0.5442942942942947 	299.9999161211991 	0.005171074096471115 	101324.9002713467
-0.5417917917917919 	300.0051775334268 	0.01498391988540443 	101331.1204163435
-0.5392892892892895 	300.0102764766203 	0.0297727172223277 	101337.148753456
-0.536786786786787 	300.0152591872168 	0.04422059622987411 	101343.0399162261
-0.5342842842842846 	300.0201607050828 	0.05841258523769226 	101348.8353144531
-0.531781781781782 	300.0249606671691 	0.07228176400379606 	101354.5108869557
-0.5292792792792794 	300.0295618700829 	0.08554752830418347 	101359.951658787
-0.526776776776777 	300.0337942246214 	0.09772520882784341 	101364.956491077
-0.5242742742742745 	300.0374393691677 	0.1081947388438782 	101369.2671163422
-0.521771771771772 	300.040267898945 	0.1163058589963452 	101372.6121557141
-0.5192692692692695 	300.0420803892487 	0.1214945220991251 	101374.7557166613
-0.516766766766767 	300.042744095739 	0.1233864861347303 	101375.5406913243
-0.5142642642642645 	300.042218081749 	0.1218686588131093 	101374.9186300488
-0.511761761761762 	300.0405628532384 	0.117116846592957 	101372.9613513854
-0.5092592592592596 	300.0379345660388 	0.1095758869029955 	101369.8533108373
-0.506756756756757 	300.0345615842771 	0.09989588506304435 	101365.8646477287
-0.5042542542542544 	300.0307117096485 	0.0888386632777914 	101361.3121458876
-0.5017517517517521 	300.0266552804966 	0.07717374824680541 	101356.5155268022
-0.4992492492492494 	300.0226315201513 	0.06558455348136696 	101351.7576801716
-0.496746746746747 	300.0188257344355 	0.05460547774185477 	101347.2577081932
-0.4942442442442445 	300.0153629058841 	0.04460110419772518 	101343.1633631639
-0.4917417417417421 	300.012313278192 	0.03577880777320328 	101339.5576640018
-0.4892392392392395 	300.009702492845 	0.02821681663317898 	101336.4708923821
-0.486736736736737 	300.0075228005017 	0.02189625618711794 	101333.8938551372
-0.4842342342342345 	300.0057437510267 	0.0167318973526851 	101331.790526557
-0.481731731731732 	300.004321435679 	0.01259885194172205 	101330.1089758024
-0.4792292292292296 	300.0032058440047 	0.009353909332584062 	101328.7900651083
-0.4767267267267268 	300.0023462690681 	0.006851274009000382 	101327.7738377114
-0.4742242242242246 	300.0016949273865 	0.004953162506396008 	101327.003796504
-0.471721721721722 	300.001209092613 	0.003536100202365667 	101326.4294259945
-0.4692192192192195 	300.0008520869766 	0.002493895306917842 	101326.0073625976
-0.4667167167167169 	300.0005934582859 	0.001738240584936922 	101325.7016040775
-0.4642142142142145 	300.0004086316006 	0.001197769208545701 	101325.4830964563
-0.461711711711712 	300.0002782602529 	0.0008162258602513964 	101325.3289676537
-0.4592092092092094 	300.0001874477028 	0.0005502422204130065 	101325.2216064333
-0.456706706706707 	300.0001249517795 	0.0003670518379537036 	101325.147721855
-0.4542042042042045 	300.0000824427931 	0.0002423519224951973 	101325.097466612
-0.451701701701702 	300.0000538543284 	0.0001584235217704826 	101325.0636684271
-0.4491991991991995 	300.0000348375367 	0.0001025531650228437 	101325.0411861778
-0.4466966966966969 	300.0000223218075 	6.575533676207603e-05 	101325.0263896812
-0.4441941941941945 	300.0000141696383 	4.176922032015403e-05 	101325.0167518561
-0.441691691691692 	300.0000089128641 	2.629126114251518e-05 	101325.0105371673
-0.4391891891891895 	300.0000055563988 	1.640127380073117e-05 	101325.0065689888
-0.436686686686687 	300.0000034336512 	1.014221708959727e-05 	101325.0040594233
-0.4341841841841846 	300.0000021037329 	6.217995839723705e-06 	101325.0024871097
-0.431681681681682 	300.000001278015 	3.780088004225589e-06 	101325.0015109862
-0.4291791791791794 	300.0000007699779 	2.279043168051297e-06 	101325.0009103908
-0.426676676676677 	300.0000004601054 	1.36291721606445e-06 	101325.0005440774
-0.4241741741741744 	300.0000002728115 	8.085558623055984e-07 	101325.0003225669
-0.421671671671672 	300.0000001605097 	4.759269441891539e-07 	101325.0001897415
-0.4191691691691694 	300.0000000937499 	2.779761294916046e-07 	101325.0001107499
-0.4166666666666669 	300.0000000543491 	1.611318915319087e-07 	101325.0000641523
-0.4141641641641645 	300.0000000311305 	9.270276156583863e-08 	101325.0000368821
-0.411661661661662 	300.0000000178194 	5.294515192903369e-08 	101325.0000210471
-0.4091591591591594 	300.0000000100903 	3.001855705472809e-08 	101325.0000119226
-0.406656656656657 	300.0000000056048 	1.690114436401901e-08 	101325.0000067041
-0.4041541541541545 	300.0000000031915 	9.446928730817633e-09 	101325.0000037418
-0.401651651651652 	300.0000000016684 	5.247905523715627e-09 	101325.0000020723
-0.3991491491491494 	300.0000000009645 	2.891300243135397e-09 	101325.000001138
-0.396646646646647 	300.0000000004803 	1.58824817517079e-09 	101325.0000006186
-0.3941441441441444 	300.0000000002714 	8.61718684547704e-10 	101325.0000003318
-0.3916416416416419 	300.0000000000761 	4.698652638127239e-10 	101325.0000001746
-0.3891391391391395 	300.0000000000284 	2.50184573654967e-10 	101325.0000000892
-0.3866366366366368 	299.999999999994 	1.359848564613503e-10 	101325.0000000431
-0.3841341341341344 	300.000000000019 	7.148780497729298e-11 	101325.0000000183
-0.381631631631632 	299.999999999952 	3.935710566977453e-11 	101325.0000000052
-0.3791291291291294 	300.0000000000102 	2.119473118961011e-11 	101324.9999999985
-0.3766266266266269 	300.0000000000292 	1.178460806400938e-11 	101324.9999999949
-0.3741241241241244 	300.0000000000292 	7.804172937470081e-12 	101324.9999999927
-0.371621621621622 	300.0000000000182 	3.664961057775991e-12 	101324.9999999915
-0.3691191191191194 	300.0000000000163 	4.918376735350561e-12 	101324.9999999911
-0.366616616616617 	300.0000000000162 	1.558754844443382e-12 	101324.9999999904
-0.3641141141141143 	299.9999999999574 	3.995390471164119e-12 	101324.9999999899
-0.3616116116116119 	299.9999999999379 	1.641406102199194e-12 	101324.9999999898
-0.3591091091091095 	299.9999999999804 	2.509756602906173e-12 	101324.9999999899
-0.356606606606607 	299.9999999999649 	1.471420891881927e-12 	101324.99999999
-0.3541041041041044 	299.9999999999891 	9.777749624172373e-13 	101324.9999999901
-0.3516016016016019 	300.000000000011 	1.861952897423969e-12 	101324.9999999902
-0.3490990990990994 	299.9999999999907 	3.909774268360605e-13 	101324.9999999902
-0.346596596596597 	300.0000000000493 	2.825897121969873e-12 	101324.9999999903
-0.3440940940940944 	300.0000000000587 	6.901761503111594e-13 	101324.9999999902
-0.3415915915915919 	300.0000000000243 	3.160762043558089e-12 	101324.99999999
-0.3390890890890895 	299.9999999999746 	1.225982306489304e-12 	101324.9999999901
-0.3365865865865869 	300.000000000021 	2.589298249590743e-12 	101324.9999999901
-0.3340840840840844 	300.0000000000005 	1.33126910762533e-12 	101324.9999999901
-0.3315815815815819 	300.0000000000251 	2.795504439941041e-12 	101324.9999999901
-0.3290790790790794 	300.0000000000254 	1.955369378129369e-12 	101324.9999999899
-0.3265765765765769 	299.9999999999138 	3.350591248952052e-12 	101324.99999999
-0.3240740740740744 	299.9999999999944 	1.433173705906194e-12 	101324.99999999
-0.3215715715715718 	300.0000000000074 	3.99930481427741e-12 	101324.9999999903
-0.3190690690690695 	299.9999999999173 	1.916758432250433e-12 	101324.9999999905
-0.3165665665665668 	299.9999999999923 	5.072417918988753e-12 	101324.9999999905
-0.3140640640640644 	300.0000000000045 	1.898815267520953e-12 	101324.9999999904
-0.311561561561562 	299.9999999999138 	5.787212911319445e-12 	101324.9999999902
-0.3090590590590593 	299.9999999999927 	8.254745273623472e-13 	101324.9999999901
-0.3065565565565568 	300.0000000000031 	6.65651459270913e-12 	101324.9999999903
-0.3040540540540545 	300.0000000000084 	1.601518185870548e-12 	101324.99999999
-0.3015515515515518 	300.0000000000428 	5.059350010228496e-12 	101324.9999999897
-0.2990490490490494 	299.9999999999399 	1.063099482230579e-12 	101324.9999999896
-0.2965465465465469 	299.9999999999833 	3.928931248571561e-12 	101324.9999999894
-0.2940440440440444 	299.9999999999953 	2.410887284705658e-12 	101324.9999999897
-0.2915415415415418 	300.0000000000031 	3.175432391220485e-12 	101324.9999999898
-0.2890390390390395 	300.0000000000075 	3.03241164874415e-12 	101324.99999999
-0.2865365365365368 	299.9999999999796 	1.719058367072105e-12 	101324.9999999901
-0.2840340340340343 	300.0000000000032 	3.077674121203698e-12 	101324.9999999903
-0.2815315315315318 	299.9999999999145 	1.015166345100429e-12 	101324.9999999902
-0.2790290290290295 	299.9999999999555 	3.188633161285008e-12 	101324.9999999903
-0.2765265265265269 	300.0000000000094 	2.101213686680523e-12 	101324.9999999906
-0.2740240240240244 	300.000000000031 	3.448808604458986e-12 	101324.9999999906
-0.2715215215215219 	300.0000000000142 	3.834088591304695e-12 	101324.9999999903
-0.2690190190190194 	299.9999999999371 	3.654815484069164e-12 	101324.9999999902
-0.2665165165165169 	299.9999999999998 	4.329420639073649e-12 	101324.9999999901
-0.2640140140140144 	299.9999999999616 	2.987965137033077e-12 	101324.9999999899
-0.2615115115115119 	300.0000000000002 	4.304715777131479e-12 	101324.9999999897
-0.2590090090090094 	299.9999999999208 	2.616932977165804e-12 	101324.9999999897
-0.2565065065065068 	299.9999999999939 	3.018181557730316e-12 	101324.9999999892
-0.2540040040040044 	299.9999999999958 	2.990511823177458e-12 	101324.9999999893
-0.2515015015015019 	300.000000000045 	1.770159402921e-12 	101324.9999999894
-0.2489989989989994 	300.0000000000534 	4.32045954685982e-12 	101324.9999999896
-0.2464964964964968 	299.9999999999899 	1.390715467164903e-12 	101324.9999999894
-0.2439939939939944 	299.9999999999937 	5.855843299582629e-12 	101324.9999999893
-0.2414914914914919 	299.9999999999586 	1.470080182936911e-12 	101324.9999999896
-0.2389889889889893 	300.0000000000051 	6.538673776202529e-12 	101324.9999999897
-0.2364864864864869 	300.0000000000281 	2.560461008616318e-12 	101324.99999999
-0.2339839839839843 	299.9999999999146 	7.584300104964843e-12 	101324.9999999899
-0.2314814814814819 	299.9999999999825 	3.126705521988246e-12 	101324.9999999899
-0.2289789789789792 	299.9999999999057 	7.143135377750327e-12 	101324.9999999897
-0.2264764764764769 	299.9999999999416 	4.005046698033579e-12 	101324.99999999
-0.2239739739739743 	299.9999999999495 	5.927479964304379e-12 	101324.99999999
-0.2214714714714718 	299.9999999999322 	4.915145639902712e-12 	101324.99999999
-0.2189689689689693 	299.9999999999648 	4.664696834515607e-12 	101324.9999999898
-0.2164664664664669 	299.9999999999792 	5.449582507243447e-12 	101324.9999999897
-0.2139639639639643 	299.9999999999196 	3.67824662530891e-12 	101324.9999999898
-0.2114614614614618 	299.9999999999679 	3.796518252416532e-12 	101324.9999999895
-0.2089589589589593 	299.9999999999864 	3.524979704647375e-12 	101324.9999999896
-0.2064564564564568 	299.9999999999862 	2.522314710994838e-12 	101324.9999999896
-0.2039539539539543 	299.9999999998914 	3.877932511855006e-12 	101324.9999999897
-0.2014514514514518 	299.9999999999392 	7.747835759535654e-13 	101324.9999999895
-0.1989489489489494 	299.9999999999653 	3.857812456489743e-12 	101324.9999999896
-0.1964464464464468 	299.9999999999902 	5.615709565100107e-13 	101324.9999999897
-0.1939439439439443 	299.9999999999897 	4.772143714488799e-12 	101324.9999999895
-0.1914414414414418 	299.9999999999034 	2.239806262272035e-12 	101324.9999999896
-0.1889389389389393 	300.0000000000069 	4.414710591248601e-12 	101324.9999999893
-0.1864364364364368 	300.000000000047 	3.5150312840383e-12 	101324.9999999895
-0.1839339339339343 	299.9999999999715 	4.628402665970754e-12 	101324.9999999895
-0.1814314314314318 	299.9999999999965 	2.742033335400917e-12 	101324.9999999897
-0.1789289289289293 	299.9999999998822 	4.628107899421148e-12 	101324.9999999898
-0.1764264264264268 	299.999999999979 	1.820550255533105e-12 	101324.99999999
-0.1739239239239243 	299.9999999998868 	4.730937023497164e-12 	101324.99999999
-0.1714214214214218 	299.9999999999815 	3.804109206886258e-13 	101324.9999999903
-0.1689189189189193 	299.9999999999458 	6.03318410903754e-12 	101324.9999999905
-0.1664164164164168 	300.0000000000063 	1.271020220846693e-12 	101324.9999999903
-0.1639139139139143 	299.9999999999824 	7.70839288139151e-12 	101324.9999999903
-0.1614114114114118 	300.0000000000323 	2.186390851455248e-12 	101324.9999999902
-0.1589089089089093 	299.9999999999944 	1.007948846782895e-11 	101324.9999999903
-0.1564064064064068 	299.9999999999794 	3.973661666481556e-12 	101324.9999999904
-0.1539039039039043 	299.9999999999882 	1.037081480915103e-11 	101324.9999999904
-0.1514014014014018 	300.0000000000294 	3.235946112220281e-12 	101324.9999999906
-0.1488988988988993 	299.9999999999759 	9.589220520472515e-12 	101324.9999999906
-0.1463963963963968 	299.999999999997 	2.229635497650432e-12 	101324.9999999907
-0.1438938938938943 	299.9999999999464 	7.823402242724684e-12 	101324.9999999908
-0.1413913913913918 	299.9999999999125 	1.084714831302762e-12 	101324.9999999907
-0.1388888888888893 	299.9999999999799 	6.338993145494504e-12 	101324.9999999912
-0.1363863863863868 	299.999999999874 	1.40295160991204e-12 	101324.9999999912
-0.1338838838838843 	299.9999999999003 	4.800534994928574e-12 	101324.9999999909
-0.1313813813813818 	299.999999999996 	1.311303377779595e-12 	101324.9999999908
-0.1288788788788793 	299.9999999999523 	4.916186656407881e-12 	101324.9999999906
-0.1263763763763768 	299.9999999999637 	1.591063490599542e-12 	101324.9999999903
-0.1238738738738743 	299.9999999999151 	5.17241877001306e-12 	101324.9999999902
-0.1213713713713717 	299.999999999979 	1.209523618348069e-12 	101324.9999999898
-0.1188688688688693 	300.0000000000066 	6.85297189466566e-12 	101324.9999999896
-0.1163663663663668 	299.9999999998907 	1.235509308233863e-12 	101324.9999999897
-0.1138638638638643 	299.9999999999893 	6.722742040867361e-12 	101324.9999999897
-0.1113613613613618 	299.9999999999837 	7.02696233184085e-13 	101324.9999999899
-0.1088588588588592 	299.9999999999744 	7.230449611734936e-12 	101324.9999999901
-0.1063563563563568 	299.9999999999462 	6.207394414191257e-13 	101324.9999999904
-0.1038538538538543 	299.9999999999682 	5.464940276700617e-12 	101324.9999999905
-0.1013513513513517 	300.0000000000167 	7.705045054428805e-13 	101324.9999999906
-0.09884884884884926 	299.9999999999334 	4.672532140129455e-12 	101324.9999999902
-0.09634634634634676 	299.9999999998709 	8.787966201398677e-13 	101324.9999999902
-0.09384384384384425 	299.9999999999205 	2.962992361434337e-12 	101324.9999999901
-0.09134134134134177 	300.0000000000266 	1.168371064441282e-12 	101324.9999999899
-0.08883883883883925 	300.0000000000097 	3.077045156721738e-12 	101324.9999999897
-0.08633633633633674 	299.999999999947 	2.02176824767583e-12 	101324.9999999896
-0.08383383383383426 	300.0000000000105 	2.552151182718008e-12 	101324.9999999897
-0.08133133133133173 	299.9999999999632 	2.663066047401082e-12 	101324.9999999897
-0.07882882882882926 	299.9999999998614 	2.583316325844673e-12 	101324.9999999893
-0.07632632632632676 	299.9999999999517 	2.097302135959612e-12 	101324.9999999892
-0.07382382382382424 	299.9999999998826 	2.326760729218147e-12 	101324.999999989
-0.07132132132132173 	300.0000000000106 	2.054462313212081e-12 	101324.9999999893
-0.06881881881881925 	299.999999999954 	2.294741014634856e-12 	101324.9999999896
-0.06631631631631671 	299.9999999998764 	1.931980450229528e-12 	101324.9999999894
-0.06381381381381425 	299.9999999999457 	1.391129497478732e-12 	101324.9999999893
-0.06131131131131173 	299.9999999999472 	1.420164731867387e-12 	101324.9999999892
-0.05880880880880923 	299.9999999999058 	1.298521945508674e-12 	101324.999999989
-0.05630630630630672 	299.9999999999582 	1.600168304396863e-12 	101324.9999999888
-0.05380380380380424 	300.000000000016 	1.821221933707459e-12 	101324.9999999887
-0.05130130130130173 	300.0000000000149 	2.191164342927442e-12 	101324.9999999891
-0.04879879879879922 	299.9999999999337 	2.247724981223802e-12 	101324.9999999893
-0.04629629629629672 	299.9999999999208 	1.880656441895464e-12 	101324.9999999896
-0.04379379379379422 	299.9999999999057 	2.244167118667928e-12 	101324.9999999899
-0.04129129129129173 	299.9999999999708 	2.228657821002897e-12 	101324.9999999901
-0.03878878878878922 	299.999999999976 	2.654412234878679e-12 	101324.9999999901
-0.03628628628628671 	299.999999999975 	2.686010349271421e-12 	101324.9999999901
-0.03378378378378422 	299.9999999999139 	2.895478162269772e-12 	101324.99999999
-0.03128128128128172 	299.9999999999609 	2.454835040718078e-12 	101324.9999999899
-0.02877877877877922 	299.9999999999627 	2.974010602640866e-12 	101324.9999999898
-0.0262762762762767 	299.9999999998823 	3.137914998857524e-12 	101324.99999999
-0.02377377377377422 	300.0000000000194 	2.941005884035396e-12 	101324.99999999
-0.0212712712712717 	299.9999999998868 	3.095909501169318e-12 	101324.9999999899
-0.01876876876876921 	299.9999999999638 	2.772776900211873e-12 	101324.9999999899
-0.01626626626626671 	300.0000000000137 	3.308465142602321e-12 	101324.9999999898
-0.0137637637637642 	299.9999999999559 	2.727016782715e-12 	101324.9999999895
-0.0112612612612617 	300.0000000000181 	2.541135156225924e-12 	101324.9999999893
-0.008758758758759198 	299.9999999999966 	2.109560620415445e-12 	101324.9999999894
-0.006256256256256697 	299.9999999998659 	1.571161510871021e-12 	101324.9999999892
-0.003753753753754195 	299.999999999948 	2.332170241278268e-13 	101324.9999999889
-0.001251251251251693 	299.9999999999157 	6.909320769185473e-13 	101324.9999999888
0.00125125125125081 	299.9999999999478 	1.934234380515454e-13 	101324.9999999889
0.003753753753753312 	299.9999999999566 	1.29231504717063e-12 	101324.9999999891
0.006256256256255817 	299.9999999998708 	7.760852390113339e-13 	101324.9999999891
0.008758758758758317 	299.999999999987 	1.377050652244946e-12 	101324.9999999892
0.01126126126126082 	300.0000000000099 	1.518087985144431e-12 	101324.9999999893
0.01376376376376332 	299.9999999999625 	1.871452459412256e-12 	101324.9999999894
0.01626626626626582 	300.0000000000105 	1.667896071392805e-12 	101324.9999999894
0.01876876876876833 	299.9999999999512 	1.504505766204508e-12 	101324.9999999893
0.02127127127127083 	299.9999999999637 	3.754825969646472e-13 	101324.9999999895
0.02377377377377332 	299.999999999994 	2.65419915797918e-13 	101324.9999999893
0.02627627627627583 	299.9999999998919 	3.182744765634753e-13 	101324.9999999893
0.02877877877877833 	300.0000000000089 	7.483171404561933e-13 	101324.9999999892
0.03128128128128083 	299.9999999999379 	2.63120916646502e-13 	101324.9999999894
0.03378378378378333 	299.9999999998859 	1.150471698745294e-12 	101324.9999999895
0.03628628628628584 	299.999999999959 	1.393285360797814e-12 	101324.9999999892
0.03878878878878834 	299.9999999999766 	1.890143006040936e-12 	101324.9999999893
0.04129129129129084 	299.9999999999713 	2.011938850873902e-12 	101324.9999999892
0.04379379379379333 	299.9999999999305 	1.856325611433077e-12 	101324.9999999892
0.04629629629629585 	299.9999999998717 	1.671442372024132e-12 	101324.999999989
0.04879879879879834 	299.9999999999499 	1.5948771053823e-12 	101324.9999999892
0.05130130130130085 	300.0000000000176 	1.131285697879099e-12 	101324.9999999891
0.05380380380380335 	300.0000000000252 	5.752131342827142e-13 	101324.9999999894
0.05630630630630584 	299.9999999999847 	3.224280954094465e-13 	101324.9999999895
0.05880880880880836 	299.9999999999095 	2.90199932758278e-13 	101324.9999999897
0.06131131131131085 	299.999999999971 	2.902860601500763e-13 	101324.9999999897
0.06381381381381336 	299.9999999999564 	1.293584002411059e-13 	101324.9999999895
0.06631631631631586 	299.9999999998736 	2.922686974897126e-13 	101324.9999999896
0.06881881881881835 	299.99999999994 	1.068385138493483e-12 	101324.9999999896
0.07132132132132088 	299.9999999999901 	1.410357587476768e-12 	101324.9999999898
0.07382382382382337 	299.9999999998844 	1.964386631615398e-12 	101324.99999999
0.07632632632632587 	299.9999999999661 	1.946264787150829e-12 	101324.9999999901
0.07882882882882837 	299.9999999999279 	1.120332244206909e-12 	101324.9999999902
0.08133133133133086 	299.9999999999866 	8.563882450301339e-13 	101324.9999999903
0.08383383383383337 	299.9999999999847 	3.68683791374742e-13 	101324.9999999905
0.08633633633633589 	299.9999999998902 	7.5446210705422e-13 	101324.9999999904
0.08883883883883838 	300.0000000000148 	1.56160658718329e-12 	101324.99999999
0.09134134134134086 	299.999999999986 	1.074205972707097e-12 	101324.99999999
0.09384384384384339 	299.9999999998764 	1.539135307066629e-12 	101324.9999999903
0.09634634634634588 	299.999999999953 	1.604946599688852e-12 	101324.9999999903
0.09884884884884838 	299.9999999999609 	1.511865727057782e-12 	101324.9999999903
0.1013513513513509 	300.0000000000279 	1.285590039506927e-12 	101324.9999999902
0.1038538538538534 	299.9999999999488 	1.026195286808993e-12 	101324.99999999
0.1063563563563559 	300.0000000000196 	1.186237971606219e-12 	101324.9999999899
0.1088588588588584 	300.0000000000248 	7.913888752708373e-13 	101324.9999999895
0.1113613613613609 	299.9999999999066 	7.569714478577786e-13 	101324.9999999897
0.1138638638638634 	299.9999999999384 	5.192247632326598e-13 	101324.9999999898
0.1163663663663659 	299.9999999999358 	9.761399229639392e-13 	101324.9999999894
0.1188688688688684 	299.9999999999621 	1.217379865949499e-12 	101324.9999999896
0.1213713713713709 	299.9999999999928 	7.242876183135746e-13 	101324.9999999896
0.1238738738738734 	299.9999999999091 	1.061637087532468e-12 	101324.9999999897
0.1263763763763759 	299.9999999999848 	1.439942413536521e-12 	101324.9999999898
0.1288788788788784 	299.9999999999875 	1.747368066111828e-12 	101324.9999999897
0.1313813813813809 	299.9999999999861 	2.098507230028061e-12 	101324.9999999896
0.1338838838838834 	299.9999999999703 	1.950305323844127e-12 	101324.9999999894
0.1363863863863859 	300.0000000000297 	1.694147478970075e-12 	101324.9999999894
0.1388888888888884 	300.0000000000544 	1.770110086659595e-12 	101324.9999999892
0.1413913913913909 	300.0000000000002 	1.443901720978199e-12 	101324.9999999891
0.1438938938938934 	299.9999999999869 	2.444241829360534e-12 	101324.9999999892
0.1463963963963959 	299.9999999999507 	1.105775621429112e-12 	101324.9999999891
0.1488988988988985 	299.9999999998942 	2.457701980442548e-12 	101324.9999999892
0.1514014014014009 	299.9999999999646 	6.504695610362386e-13 	101324.9999999891
0.1539039039039035 	299.999999999958 	2.725184156244737e-12 	101324.9999999891
0.1564064064064059 	299.9999999999227 	4.759424893483106e-13 	101324.999999989
0.1589089089089084 	299.9999999999746 	3.513712837859402e-12 	101324.9999999892
0.1614114114114109 	299.9999999999702 	9.076236924407101e-13 	101324.9999999895
0.1639139139139134 	299.9999999999029 	2.922892189030908e-12 	101324.9999999893
0.166416416416416 	300.0000000000006 	2.010515246861443e-12 	101324.9999999893
0.1689189189189185 	300.0000000000363 	2.214345200414784e-12 	101324.9999999893
0.1714214214214209 	299.9999999999955 	2.532250900146194e-12 	101324.9999999893
0.1739239239239235 	299.9999999999878 	1.640388161724305e-12 	101324.9999999894
0.1764264264264259 	299.9999999999582 	3.517539966889167e-12 	101324.9999999894
0.1789289289289284 	300.0000000000103 	1.620045999680476e-12 	101324.9999999893
0.181431431431431 	299.9999999999628 	4.047754971100769e-12 	101324.9999999894
0.1839339339339334 	299.9999999999671 	2.438509013555501e-12 	101324.9999999897
0.186436436436436 	299.9999999999149 	3.854923179810235e-12 	101324.9999999898
0.1889389389389385 	299.9999999999849 	3.57240378452863e-12 	101324.9999999897
0.191441441441441 	299.9999999999775 	3.093272987629734e-12 	101324.9999999896
0.1939439439439434 	299.9999999999022 	4.2496636965616e-12 	101324.9999999897
0.196446446446446 	299.9999999999361 	3.01855287118897e-12 	101324.9999999897
0.1989489489489485 	299.9999999999694 	5.25990974470055e-12 	101324.9999999894
0.2014514514514509 	299.9999999999761 	2.601141173386542e-12 	101324.9999999896
0.2039539539539535 	299.9999999999895 	3.903467004156531e-12 	101324.9999999896
0.2064564564564559 	299.9999999999529 	2.690070622276729e-12 	101324.9999999896
0.2089589589589585 	299.9999999999761 	3.06263904084899e-12 	101324.9999999898
0.211461461461461 	299.9999999999251 	3.332549399737989e-12 	101324.9999999898
0.2139639639639635 	299.9999999999828 	2.43489658916471e-12 	101324.9999999897
0.2164664664664659 	299.9999999999926 	3.066596686089636e-12 	101324.9999999895
0.2189689689689684 	299.9999999999922 	6.072625604291729e-13 	101324.9999999894
0.221471471471471 	299.9999999999927 	3.003818808598587e-12 	101324.9999999892
0.2239739739739735 	299.9999999999446 	4.476732282213881e-13 	101324.9999999892
0.226476476476476 	299.9999999999758 	1.698326418064022e-12 	101324.999999989
0.2289789789789785 	299.9999999999966 	4.359618430495678e-13 	101324.9999999888
0.231481481481481 	299.9999999999824 	6.522757098005149e-13 	101324.9999999886
0.2339839839839835 	299.9999999999807 	1.384002188588878e-12 	101324.9999999882
0.236486486486486 	300.0000000000197 	1.488592702541086e-12 	101324.9999999884
0.2389889889889885 	300.0000000000006 	3.578516037048002e-12 	101324.9999999887
0.241491491491491 	299.9999999999054 	1.522671191399044e-12 	101324.9999999889
0.2439939939939935 	299.9999999999795 	4.268226989806337e-12 	101324.999999989
0.246496496496496 	299.9999999999857 	1.517217228577297e-12 	101324.9999999892
0.2489989989989985 	300.0000000000355 	2.436602955980587e-12 	101324.9999999894
0.251501501501501 	300.0000000000294 	1.214200064590304e-12 	101324.9999999892
0.2540040040040035 	299.9999999999825 	1.502609423549948e-12 	101324.9999999891
0.256506506506506 	300.0000000000293 	2.217570970274212e-12 	101324.9999999891
0.2590090090090086 	299.9999999998926 	1.216503953584671e-12 	101324.9999999893
0.261511511511511 	299.9999999999999 	3.452791954760984e-12 	101324.9999999893
0.2640140140140135 	299.9999999999872 	9.438162982646468e-13 	101324.9999999896
0.2665165165165161 	299.9999999999169 	2.128065425246248e-12 	101324.9999999894
0.2690190190190185 	300.0000000000092 	9.706700265599388e-13 	101324.9999999891
0.271521521521521 	300.0000000000104 	9.861563212830243e-13 	101324.9999999889
0.2740240240240235 	300.0000000000156 	1.059496739500861e-12 	101324.999999989
0.276526526526526 	300.0000000000041 	1.904549777869785e-13 	101324.999999989
0.2790290290290286 	299.9999999999294 	1.069765186982783e-12 	101324.999999989
0.281531531531531 	299.9999999999161 	8.125111618170226e-13 	101324.9999999888
0.2840340340340335 	299.9999999999794 	1.25070896917188e-12 	101324.9999999889
0.2865365365365361 	299.9999999999502 	4.426049054418933e-13 	101324.9999999887
0.2890390390390385 	299.9999999999935 	9.859373291043941e-13 	101324.9999999889
0.291541541541541 	299.9999999999923 	1.03591598999127e-12 	101324.9999999887
0.2940440440440436 	299.9999999999835 	5.41058095203754e-13 	101324.9999999888
0.296546546546546 	299.9999999999849 	1.857674742308814e-12 	101324.9999999889
0.2990490490490486 	299.9999999999266 	1.473027523322376e-12 	101324.999999989
0.3015515515515511 	300.000000000041 	3.839400786883758e-12 	101324.9999999891
0.3040540540540535 	299.9999999999926 	2.337874101713475e-12 	101324.9999999891
0.3065565565565562 	299.9999999999954 	4.93542377582171e-12 	101324.9999999891
0.3090590590590585 	299.9999999999856 	1.895553410595613e-12 	101324.9999999892
0.3115615615615611 	299.9999999999251 	3.987606634051107e-12 	101324.9999999894
0.3140640640640635 	300.0000000000008 	9.807472245042563e-13 	101324.9999999893
0.316566566566566 	299.999999999986 	3.170412562448188e-12 	101324.9999999895
0.3190690690690687 	299.9999999999464 	7.242043316133573e-13 	101324.9999999896
0.3215715715715711 	300.0000000000126 	2.584756439385568e-12 	101324.9999999898
0.3240740740740735 	299.9999999999943 	1.465264028811918e-12 	101324.9999999899
0.326576576576576 	299.9999999998889 	9.889154151924375e-13 	101324.9999999897
0.3290790790790786 	300.000000000004 	9.281021092624481e-13 	101324.9999999894
0.3315815815815811 	300.000000000041 	1.105439057029181e-12 	101324.9999999893
0.3340840840840836 	299.9999999999828 	6.697521805175564e-13 	101324.9999999892
0.3365865865865861 	300.000000000062 	1.124090637597289e-12 	101324.9999999891
0.3390890890890886 	300.000000000054 	7.063473264913797e-13 	101324.9999999891
0.3415915915915911 	300.0000000000055 	1.048099439736941e-12 	101324.9999999892
0.3440940940940935 	299.9999999999425 	1.381151952137614e-12 	101324.9999999894
0.3465965965965962 	300.0000000000383 	8.385247761353175e-13 	101324.9999999894
0.3490990990990985 	300.0000000000285 	8.737044361029888e-13 	101324.9999999895
0.3516016016016011 	299.9999999999808 	1.714242634880689e-13 	101324.9999999899
0.3541041041041035 	300.000000000006 	1.656560552350605e-13 	101324.9999999902
0.3566066066066061 	299.9999999999509 	8.732097744047686e-13 	101324.9999999902
0.3591091091091085 	299.9999999999125 	1.338793737706828e-12 	101324.9999999901
0.3616116116116112 	299.9999999999304 	1.279454600338561e-12 	101324.9999999901
0.3641141141141137 	299.9999999999227 	2.080136510109444e-12 	101324.9999999901
0.3666166166166161 	299.9999999999132 	2.260481682441562e-12 	101324.9999999899
0.3691191191191185 	300.0000000000417 	2.997675246931516e-12 	101324.9999999897
0.371621621621621 	300.0000000000151 	2.398032568981631e-12 	101324.9999999895
0.3741241241241237 	300.000000000057 	2.523797541355052e-12 	101324.9999999895
0.3766266266266261 	300.0000000000317 	1.25892942130138e-12 	101324.9999999893
0.3791291291291286 	299.9999999999782 	2.075936651119866e-12 	101324.9999999894
0.3816316316316311 	299.9999999999097 	1.734876074585131e-12 	101324.9999999893
0.3841341341341336 	300.0000000000131 	1.512345969507808e-12 	101324.9999999892
0.3866366366366362 	299.999999999996 	1.689660667572608e-12 	101324.9999999893
0.3891391391391387 	299.9999999999476 	5.330005252460992e-13 	101324.9999999894
0.391641641641641 	299.9999999999975 	1.42300126863722e-12 	101324.9999999896
0.3941441441441436 	300.000000000005 	3.823815074349364e-13 	101324.9999999896
0.3966466466466462 	299.9999999999956 	2.012986725146222e-12 	101324.9999999892
0.3991491491491486 	299.9999999999401 	8.905227203222213e-13 	101324.9999999892
0.4016516516516512 	299.9999999999055 	1.740330996813506e-12 	101324.999999989
0.4041541541541536 	299.9999999999373 	6.253604089045173e-13 	101324.9999999889
0.4066566566566561 	299.9999999999408 	1.580370927848584e-12 	101324.9999999891
0.4091591591591587 	299.999999999989 	3.110250723112518e-13 	101324.9999999892
0.4116616616616612 	300.0000000000002 	9.952276410803302e-13 	101324.9999999891
0.4141641641641635 	300.0000000000499 	1.625134828953367e-13 	101324.999999989
0.4166666666666662 	299.9999999999918 	5.206510295883161e-13 	101324.9999999889
0.4191691691691687 	299.9999999999312 	1.084047537750422e-12 	101324.9999999891
0.421671671671671 	300.0000000000153 	2.199377949902229e-12 	101324.9999999891
0.4241741741741737 	299.999999999976 	2.663884742237667e-12 	101324.9999999891
0.4266766766766761 	299.9999999999494 	2.860006425505963e-12 	101324.999999989
0.4291791791791785 	300.0000000000212 	3.663109790077827e-12 	101324.9999999891
0.4316816816816812 	300.0000000000133 	3.035534113333993e-12 	101324.9999999892
0.4341841841841836 	299.9999999999847 	3.248094739414875e-12 	101324.9999999893
0.4366866866866862 	299.9999999999031 	1.837326868915221e-12 	101324.9999999892
0.4391891891891885 	299.999999999981 	2.854645891669224e-12 	101324.9999999892
0.4416916916916913 	299.9999999999801 	1.061605588679122e-12 	101324.9999999894
0.4441941941941936 	299.9999999999866 	2.806985862464537e-12 	101324.9999999895
0.4466966966966961 	299.9999999999096 	8.032818011518664e-13 	101324.9999999894
0.4491991991991987 	299.9999999999773 	1.279076245401767e-12 	101324.9999999895
0.4517017017017012 	299.9999999999745 	1.400763178048601e-13 	101324.9999999896
0.4542042042042035 	299.9999999999768 	7.402293117186411e-14 	101324.9999999898
0.4567067067067062 	299.9999999999965 	2.511409452876778e-13 	101324.99999999
0.4592092092092087 	299.9999999999205 	2.461712682295849e-13 	101324.9999999898
0.4617117117117112 	300.0000000000207 	4.887856634290784e-13 	101324.9999999896
0.4642142142142137 	299.9999999999586 	3.161371046490144e-13 	101324.9999999895
0.4667167167167162 	299.9999999999903 	3.260073604498819e-13 	101324.9999999894
0.4692192192192187 	299.9999999999539 	1.661580315888341e-13 	101324.9999999896
0.4717217217217212 	300.0000000000151 	4.058548541656232e-13 	101324.9999999897
0.4742242242242236 	299.9999999999504 	3.247802697414912e-13 	101324.9999999899
0.4767267267267262 	299.9999999999753 	4.245611798140114e-13 	101324.9999999898
0.4792292292292287 	300.0000000000132 	2.561254537041611e-13 	101324.9999999897
0.4817317317317312 	300.0000000000308 	4.441683931559559e-13 	101324.9999999896
0.4842342342342336 	299.9999999999769 	2.607024495831271e-13 	101324.9999999897
0.4867367367367362 	299.999999999948 	5.787455220099561e-13 	101324.9999999897
0.4892392392392387 	300.0000000000281 	1.292538266588564e-12 	101324.9999999898
0.4917417417417412 	300.0000000000063 	1.033582160354254e-12 	101324.99999999
0.4942442442442437 	299.9999999998999 	9.674796231945402e-13 	101324.9999999902
0.4967467467467462 	299.9999999999191 	2.093601192496449e-12 	101324.9999999901
0.4992492492492487 	299.9999999999107 	5.879324165777531e-13 	101324.99999999
0.5017517517517511 	299.9999999999458 	1.652501892979806e-12 	101324.9999999898
0.5042542542542537 	299.9999999999593 	5.28867189407064e-13 	101324.9999999898
0.5067567567567562 	299.9999999999428 	4.019352927365234e-13 	101324.9999999896
0.5092592592592589 	299.9999999999694 	1.159703410402046e-12 	101324.9999999894
0.5117617617617611 	299.9999999999536 	9.895764072119321e-13 	101324.9999999892
0.5142642642642637 	299.999999999984 	2.029269524270287e-12 	101324.999999989
0.5167667667667663 	299.9999999999685 	2.56133296005422e-12 	101324.999999989
0.5192692692692688 	299.9999999999117 	2.87062793423612e-12 	101324.9999999891
0.5217717717717714 	299.999999999929 	4.070170568036178e-12 	101324.9999999893
0.5242742742742736 	299.9999999999354 	2.069296815321128e-12 	101324.9999999895
0.5267767767767763 	299.9999999999604 	4.153553049692514e-12 	101324.9999999894
0.5292792792792789 	299.9999999999397 	1.015869664679685e-12 	101324.9999999892
0.5317817817817813 	299.9999999999033 	3.980699428241573e-12 	101324.9999999891
0.5342842842842837 	300.0000000000199 	1.980578528805997e-12 	101324.9999999893
0.5367867867867864 	300.0000000000053 	4.01384511739352e-12 	101324.9999999893
0.5392892892892888 	299.999999999956 	2.549457818493022e-12 	101324.9999999896
0.5417917917917912 	300.0000000000043 	3.702583323964351e-12 	101324.9999999898
0.5442942942942938 	299.9999999999803 	1.95724823911477e-12 	101324.99999999
0.5467967967967964 	299.999999999938 	2.954364375242705e-12 	101324.9999999899
0.5492992992992988 	299.9999999999329 	1.875565331933679e-12 	101324.9999999899
0.5518018018018012 	299.9999999999337 	2.826685365167075e-12 	101324.9999999901
0.5543043043043039 	300.0000000000243 	1.98819644044896e-12 	101324.99999999
0.5568068068068063 	299.9999999999915 	2.819818099921009e-12 	101324.9999999901
0.5593093093093087 	299.9999999998958 	1.67300153445962e-12 	101324.99999999
0.5618118118118114 	299.9999999999585 	3.579502588923469e-12 	101324.9999999901
0.5643143143143137 	299.9999999999436 	2.562961077966995e-12 	101324.9999999902
0.5668168168168163 	299.9999999999968 	3.433809438522311e-12 	101324.9999999904
0.5693193193193188 	300.0000000000321 	3.385526652619366e-12 	101324.9999999906
0.5718218218218213 	300.0000000000252 	3.210322259567111e-12 	101324.9999999906
0.5743243243243239 	300.0000000000072 	3.98393306706981e-12 	101324.9999999907
0.5768268268268262 	300.0000000000091 	2.118651214901052e-12 	101324.9999999908
0.5793293293293288 	299.999999999942 	4.391510698319409e-12 	101324.9999999905
0.5818318318318314 	299.9999999999129 	1.821462553805972e-12 	101324.9999999904
0.5843343343343338 	299.9999999999784 	5.203969459625872e-12 	101324.9999999903
0.5868368368368363 	299.9999999999724 	1.519881655563596e-12 	101324.9999999902
0.5893393393393387 	299.9999999999435 	3.701002096940556e-12 	101324.99999999
0.5918418418418413 	299.9999999999358 	1.288718660399398e-12 	101324.9999999899
0.5943443443443439 	300.0000000000188 	3.715078797807662e-12 	101324.9999999899
0.5968468468468463 	300.0000000000192 	1.807213632726366e-12 	101324.99999999
0.5993493493493487 	300.0000000000394 	2.956341553984855e-12 	101324.9999999901
0.6018518518518514 	299.999999999981 	1.066092023289723e-12 	101324.99999999
0.6043543543543537 	299.99999999999 	2.306752899844782e-12 	101324.9999999899
0.6068568568568564 	299.9999999999788 	1.017259786961674e-12 	101324.9999999898
0.6093593593593587 	299.9999999999285 	2.061553897984044e-12 	101324.9999999899
0.6118618618618614 	299.9999999999178 	1.204896449171809e-12 	101324.99999999
0.6143643643643638 	300.0000000000179 	2.512991462767629e-12 	101324.9999999898
0.6168668668668662 	299.9999999999796 	1.184247543832815e-12 	101324.9999999898
0.6193693693693688 	299.9999999999492 	2.404367532553362e-12 	101324.9999999899
0.6218718718718714 	299.999999999961 	9.849415658318471e-13 	101324.9999999897
0.6243743743743737 	299.9999999999318 	2.446575171891244e-12 	101324.9999999898
0.6268768768768762 	299.9999999999212 	1.032659465748514e-12 	101324.9999999899
0.629379379379379 	299.9999999999483 	1.766304403444019e-12 	101324.9999999899
0.6318818818818812 	299.9999999999764 	1.297480443836361e-12 	101324.9999999898
0.6343843843843838 	300.0000000000197 	1.148578423867174e-12 	101324.9999999898
0.6368868868868864 	299.9999999999786 	2.367951695376813e-12 	101324.9999999896
0.6393893893893888 	299.9999999999167 	2.350890649536153e-12 	101324.9999999894
0.6418918918918912 	300.0000000000089 	3.716471107090761e-12 	101324.999999989
0.6443943943943939 	299.9999999999787 	3.574996402979618e-12 	101324.999999989
0.6468968968968963 	299.9999999999804 	4.375205159754429e-12 	101324.9999999889
0.6493993993993988 	299.9999999999731 	3.215451690089218e-12 	101324.9999999887
0.6519019019019012 	299.9999999999728 	3.608966397058259e-12 	101324.9999999888
0.6544044044044038 	299.9999999998926 	2.856806607452408e-12 	101324.999999989
0.6569069069069065 	299.9999999999462 	3.263976950301474e-12 	101324.999999989
0.6594094094094087 	299.999999999957 	1.920877156864434e-12 	101324.999999989
0.6619119119119113 	299.9999999999457 	2.620197548146829e-12 	101324.999999989
0.664414414414414 	299.9999999999991 	1.07022963672741e-12 	101324.9999999891
0.6669169169169162 	300.0000000000203 	2.47707408965532e-12 	101324.9999999892
0.6694194194194188 	299.9999999999831 	9.945494402079229e-13 	101324.9999999893
0.6719219219219214 	299.9999999999126 	1.987123526307088e-12 	101324.9999999894
0.674424424424424 	299.9999999999667 	7.214534335413215e-13 	101324.9999999896
0.6769269269269262 	299.9999999999128 	1.386578427873771e-12 	101324.9999999898
0.679429429429429 	300.000000000003 	6.248480833120807e-13 	101324.9999999896
0.6819319319319311 	299.9999999999744 	1.264516888917599e-12 	101324.9999999893
0.6844344344344341 	299.9999999999919 	6.604661695338294e-13 	101324.9999999892
0.686936936936936 	299.9999999999881 	1.191548771661222e-12 	101324.9999999893
0.6894394394394392 	299.9999999999829 	3.08828678882749e-13 	101324.9999999892
0.6919419419419413 	299.9999999999815 	2.912785586956465e-13 	101324.999999989
0.694444444444444 	299.9999999999287 	3.019895802194398e-13 	101324.9999999888
0.6969469469469463 	299.9999999999171 	9.415487763147883e-13 	101324.9999999888
0.6994494494494489 	299.9999999999099 	1.11131850080556e-12 	101324.9999999889
0.7019519519519515 	299.9999999999803 	1.171164137877125e-12 	101324.999999989
0.7044544544544538 	299.9999999999509 	2.515817834315729e-12 	101324.9999999891
0.7069569569569564 	299.9999999999918 	1.314518982205954e-12 	101324.9999999892
0.7094594594594589 	299.9999999999606 	3.01954296881485e-12 	101324.9999999894
0.7119619619619615 	299.9999999999026 	1.617342003790733e-12 	101324.9999999895
0.7144644644644638 	299.9999999999424 	3.045450276300342e-12 	101324.9999999896
0.7169669669669665 	299.9999999999091 	2.132641173946463e-12 	101324.9999999895
0.7194694694694688 	299.9999999999833 	2.922776970173013e-12 	101324.9999999897
0.7219719719719715 	299.9999999999817 	1.998877851983219e-12 	101324.9999999898
0.7244744744744737 	300.0000000000001 	2.307333756195476e-12 	101324.9999999899
0.7269769769769764 	299.9999999999916 	1.925173829568906e-12 	101324.9999999899
0.7294794794794791 	299.9999999999831 	7.737392967150162e-13 	101324.99999999
0.7319819819819813 	299.9999999999787 	1.44227472965078e-12 	101324.9999999899
0.7344844844844839 	299.999999999915 	4.197617825470023e-13 	101324.9999999899
0.7369869869869864 	299.9999999999444 	1.385203011262467e-12 	101324.9999999898
0.739489489489489 	299.9999999999305 	1.255736800780091e-12 	101324.9999999895
0.7419919919919914 	299.9999999999185 	1.376862183034616e-12 	101324.9999999893
0.7444944944944939 	299.9999999999732 	2.489479204707587e-12 	101324.9999999892
0.7469969969969963 	299.9999999999656 	1.682450507699619e-12 	101324.9999999892
0.7494994994994989 	299.999999999939 	3.195428284513065e-12 	101324.999999989
0.7520020020020015 	299.9999999999675 	2.21294901764924e-12 	101324.9999999888
0.7545045045045039 	299.9999999999653 	2.265322781010997e-12 	101324.9999999886
0.7570070070070062 	299.9999999999336 	1.593095318323329e-12 	101324.9999999886
0.7595095095095092 	299.9999999999186 	5.704641612566209e-13 	101324.9999999888
0.7620120120120112 	300.0000000000014 	6.805931655626535e-13 	101324.9999999887
0.7645145145145138 	299.9999999999819 	8.052055184115994e-13 	101324.9999999886
0.7670170170170165 	299.9999999999213 	9.168639987561989e-13 	101324.9999999885
0.7695195195195191 	299.9999999999118 	1.610323559039329e-12 	101324.9999999887
0.7720220220220213 	299.9999999999245 	1.466373739646156e-12 	101324.9999999887
0.7745245245245239 	299.9999999999243 	1.251108117845404e-12 	101324.9999999887
0.7770270270270263 	299.9999999999698 	1.419044108324772e-12 	101324.9999999887
0.779529529529529 	299.9999999999741 	7.895197011024791e-13 	101324.9999999889
0.7820320320320313 	299.9999999999669 	1.521066919726838e-12 	101324.9999999891
0.784534534534534 	299.9999999999941 	1.406520326310816e-12 	101324.9999999892
0.7870370370370364 	299.9999999999891 	9.834637606958016e-13 	101324.9999999893
0.7895395395395389 	299.9999999999737 	2.17038285509022e-12 	101324.9999999893
0.7920420420420413 	299.9999999999659 	1.711844583867631e-12 	101324.9999999894
0.794544544544544 	299.9999999999686 	2.633406089945452e-12 	101324.9999999893
0.7970470470470463 	300.0000000000006 	2.578790637151812e-12 	101324.9999999894
0.799549549549549 	299.9999999999807 	2.405764036629984e-12 	101324.9999999896
0.8020520520520515 	299.9999999999889 	2.091516127013922e-12 	101324.9999999896
0.8045545545545539 	299.9999999999423 	6.007824939350619e-13 	101324.9999999896
0.8070570570570563 	299.9999999999763 	6.243662109294113e-13 	101324.9999999896
0.8095595595595589 	299.9999999999493 	2.707097694019328e-13 	101324.9999999895
0.8120620620620614 	299.9999999999293 	6.832547108778793e-13 	101324.9999999893
0.8145645645645638 	299.9999999999975 	8.86315217819693e-13 	101324.9999999892
0.8170670670670666 	299.9999999999872 	1.452751430335009e-12 	101324.9999999892
0.8195695695695689 	299.9999999999674 	2.088114500723644e-12 	101324.9999999894
0.8220720720720714 	299.999999999937 	1.819820249179698e-12 	101324.9999999893
0.8245745745745739 	299.9999999999985 	1.894081840877516e-12 	101324.9999999892
0.8270770770770765 	299.9999999999742 	8.199135697144567e-13 	101324.9999999893
0.8295795795795788 	299.999999999947 	1.639753317290246e-12 	101324.9999999893
0.8320820820820815 	300.0000000000164 	6.11734692080333e-13 	101324.9999999892
0.834584584584584 	300.0000000000061 	1.358998667703871e-12 	101324.9999999891
0.8370870870870865 	299.9999999999703 	1.302767419073618e-12 	101324.9999999892
0.8395895895895891 	299.9999999999191 	8.921667417200961e-13 	101324.9999999893
0.8420920920920915 	299.999999999931 	9.153911639697599e-13 	101324.9999999893
0.844594594594594 	299.9999999999272 	1.160843766146815e-12 	101324.9999999894
0.8470970970970964 	299.9999999999373 	8.894835965253888e-13 	101324.9999999896
0.8495995995995991 	299.9999999999755 	1.444023079302685e-12 	101324.9999999896
0.8521021021021015 	299.999999999971 	1.216634134931405e-12 	101324.9999999895
0.8546046046046039 	299.9999999999758 	2.406999784818116e-12 	101324.9999999894
0.8571071071071066 	299.9999999999942 	1.854995519271075e-12 	101324.9999999894
0.8596096096096089 	299.9999999999479 	2.523819505971351e-12 	101324.9999999895
0.8621121121121116 	299.9999999999195 	1.440047508889798e-12 	101324.9999999895
0.8646146146146139 	299.9999999999849 	1.259901245848457e-12 	101324.9999999893
0.8671171171171166 	299.999999999967 	5.268373240765506e-13 	101324.9999999891
0.8696196196196189 	299.9999999999447 	7.608946735045815e-13 	101324.999999989
0.8721221221221216 	299.9999999999754 	5.493298906639113e-13 	101324.9999999889
0.874624624624624 	299.9999999999994 	1.167896126717824e-12 	101324.9999999887
0.8771271271271264 	300.0000000000036 	1.900432293144296e-12 	101324.9999999885
0.879629629629629 	300.0000000000102 	1.698655002426621e-12 	101324.9999999884
0.8821321321321317 	299.9999999999806 	2.970499494429866e-12 	101324.9999999883
0.8846346346346339 	299.9999999999102 	1.546981565226726e-12 	101324.9999999883
0.8871371371371364 	299.9999999999543 	2.221447429208941e-12 	101324.9999999886
0.8896396396396391 	299.999999999963 	9.479822730468641e-13 	101324.9999999887
0.8921421421421414 	299.9999999999623 	2.013490414893815e-12 	101324.9999999889
0.8946446446446441 	299.9999999999787 	1.146006271607587e-12 	101324.999999989
0.8971471471471464 	300.000000000003 	1.923500989112185e-12 	101324.999999989
0.8996496496496489 	299.9999999999704 	2.17913527807025e-12 	101324.9999999891
0.9021521521521517 	299.9999999999599 	1.973735606807777e-12 	101324.9999999893
0.9046546546546541 	299.9999999999892 	2.533383399706225e-12 	101324.9999999895
0.9071571571571564 	299.9999999999442 	2.737029624892523e-12 	101324.9999999896
0.9096596596596589 	299.9999999999422 	2.66486632643567e-12 	101324.9999999895
0.9121621621621616 	300.0000000000047 	2.778314087906822e-12 	101324.9999999895
0.9146646646646639 	299.9999999999795 	2.31301851152589e-12 	101324.9999999892
0.9171671671671666 	299.9999999999462 	2.58847859917593e-12 	101324.9999999889
0.9196696696696689 	300.0000000000017 	2.045001766619181e-12 	101324.9999999888
0.9221721721721714 	300.0000000000038 	3.195013547258104e-12 	101324.9999999886
0.9246746746746741 	299.9999999999393 	1.879720718117149e-12 	101324.9999999884
0.9271771771771765 	299.9999999999403 	3.104294990249669e-12 	101324.9999999883
0.9296796796796791 	299.9999999999873 	1.889570060450147e-12 	101324.9999999882
0.9321821821821816 	299.9999999999573 	2.856064027819075e-12 	101324.9999999883
0.9346846846846838 	299.9999999999317 	1.947380189280393e-12 	101324.9999999886
0.9371871871871866 	299.9999999999992 	2.655417222877545e-12 	101324.999999989
0.9396896896896891 	299.9999999999987 	2.989949375678923e-12 	101324.9999999893
0.9421921921921914 	299.9999999999967 	2.873253366747692e-12 	101324.9999999892
0.9446946946946939 	299.9999999999559 	3.524515730051216e-12 	101324.9999999891
0.9471971971971965 	299.9999999999153 	1.910248564484659e-12 	101324.999999989
0.9496996996996991 	299.9999999999599 	3.138254727465491e-12 	101324.9999999889
0.9522022022022016 	299.9999999999718 	2.112689032119166e-12 	101324.9999999888
0.9547047047047038 	299.9999999999636 	2.974440325505705e-12 	101324.9999999889
0.9572072072072064 	299.9999999999517 	2.408987334252768e-12 	101324.9999999888
0.9597097097097093 	299.99999999997 	2.85644938073246e-12 	101324.9999999888
0.9622122122122114 	299.99999999996 	3.190367176231646e-12 	101324.999999989
0.964714714714714 	299.9999999999593 	3.351286764013321e-12 	101324.9999999891
0.9672172172172167 	299.9999999999596 	3.959642127807356e-12 	101324.999999989
0.969719719719719 	299.9999999999849 	4.046552585151077e-12 	101324.999999989
0.9722222222222214 	299.999999999979 	4.108344155607335e-12 	101324.9999999889
0.9747247247247239 	299.9999999999695 	4.067572165539878e-12 	101324.9999999889
0.9772272272272267 	299.9999999999978 	3.665696775924174e-12 	101324.9999999887
0.9797297297297292 	299.9999999999875 	4.130330478149201e-12 	101324.9999999886
0.9822322322322313 	299.9999999999905 	3.273549429985023e-12 	101324.9999999887
0.9847347347347344 	299.9999999999827 	4.425862647051808e-12 	101324.9999999889
0.9872372372372363 	299.999999999948 	2.461648452974793e-12 	101324.999999989
0.9897397397397389 	299.9999999999706 	4.060105238726382e-12 	101324.999999989
0.9922422422422417 	299.9999999999425 	2.488518088528384e-12 	101324.9999999891
0.9947447447447441 	299.9999999999501 	3.073336031946043e-12 	101324.999999989
0.9972472472472468 	299.9999999999634 	2.235584443734204e-12 	101324.9999999889
0.999749749749749 	299.9999999999598 	2.796431765605147e-12 	101324.9999999887
1.002252252252252 	299.9999999999798 	2.966857872281234e-12 	101324.9999999885
1.004754754754754 	299.9999999999806 	3.24533972114261e-12 	101324.9999999885
1.007257257257256 	299.999999999962 	3.670065284022453e-12 	101324.9999999886
1.009759759759759 	299.9999999999525 	2.139257523701736e-12 	101324.9999999885
1.012262262262261 	299.9999999999522 	3.30109670986844e-12 	101324.9999999882
1.014764764764764 	299.999999999917 	2.581174969015718e-12 	101324.9999999881
1.017267267267267 	299.9999999999051 	3.519591601210059e-12 	101324.9999999879
1.019769769769769 	299.9999999999641 	2.673372983946421e-12 	101324.999999988
1.022272272272272 	299.9999999999729 	3.198345248882117e-12 	101324.9999999882
1.024774774774774 	299.9999999999582 	3.279711999728767e-12 	101324.9999999883
1.027277277277277 	299.9999999999601 	3.239597888552518e-12 	101324.9999999883
1.029779779779779 	300.0000000000026 	3.580338144837914e-12 	101324.9999999883
1.032282282282282 	300.0000000000022 	3.471253089051755e-12 	101324.9999999883
1.034784784784784 	299.9999999999909 	3.570224394713996e-12 	101324.9999999883
1.037287287287286 	299.9999999999623 	3.568935196568933e-12 	101324.9999999883
1.039789789789789 	299.9999999999727 	3.702336347952228e-12 	101324.9999999882
1.042292292292291 	300.0000000000016 	3.8396866031256e-12 	101324.9999999882
1.044794794794794 	300.0000000000131 	3.527281796187719e-12 	101324.9999999882
1.047297297297296 	300.0000000000404 	4.738539773512884e-12 	101324.9999999883
1.049799799799799 	299.9999999999831 	3.995463141682279e-12 	101324.9999999882
1.052302302302302 	299.9999999999419 	5.369648076375155e-12 	101324.999999988
1.054804804804804 	299.9999999999235 	4.306865995735171e-12 	101324.9999999879
1.057307307307306 	299.9999999999083 	5.136105638348998e-12 	101324.9999999879
1.059809809809809 	299.9999999999503 	4.548421620565951e-12 	101324.9999999879
1.062312312312312 	299.9999999999478 	4.929580340715761e-12 	101324.999999988
1.064814814814814 	299.9999999999415 	4.369238449952166e-12 	101324.999999988
1.067317317317317 	299.9999999999087 	4.415554544844382e-12 	101324.9999999882
1.069819819819819 	299.9999999999123 	4.33099916523027e-12 	101324.9999999883
1.072322322322321 	299.9999999999793 	3.335641397865284e-12 	101324.9999999882
1.074824824824824 	299.9999999999928 	4.329895809513357e-12 	101324.9999999883
1.077327327327327 	300.0000000000171 	3.678972979802665e-12 	101324.9999999886
1.079829829829829 	300.0000000000356 	4.793321571324619e-12 	101324.9999999887
1.082332332332332 	300.0000000000022 	4.78127779926415e-12 	101324.9999999888
1.084834834834834 	299.9999999999739 	5.142689243560408e-12 	101324.9999999887
1.087337337337337 	299.999999999932 	5.416986598356849e-12 	101324.9999999886
1.089839839839839 	299.9999999999222 	4.019440332243683e-12 	101324.9999999884
1.092342342342342 	299.9999999999594 	4.975411190279078e-12 	101324.9999999882
1.094844844844844 	299.9999999999679 	3.833646591833971e-12 	101324.999999988
1.097347347347347 	299.9999999999379 	4.568145356970519e-12 	101324.999999988
1.099849849849849 	299.999999999927 	3.310092792593811e-12 	101324.9999999881
1.102352352352352 	299.9999999999457 	4.993738483415153e-12 	101324.9999999881
1.104854854854854 	299.9999999999634 	3.582066344391303e-12 	101324.9999999881
1.107357357357357 	299.9999999999503 	4.97311507287845e-12 	101324.9999999881
1.109859859859859 	299.9999999999344 	4.140193398433323e-12 	101324.9999999882
1.112362362362362 	300.0000000000084 	5.257262532728405e-12 	101324.9999999882
1.114864864864865 	300.0000000000057 	5.469363605870251e-12 	101324.9999999884
1.117367367367367 	299.9999999999558 	5.482351213547058e-12 	101324.9999999886
1.119869869869869 	299.9999999999208 	5.932932794127136e-12 	101324.9999999884
1.122372372372372 	299.9999999999459 	5.165452783778826e-12 	101324.9999999884
1.124874874874874 	299.999999999951 	5.470604264067266e-12 	101324.9999999884
1.127377377377377 	299.9999999999669 	4.752731974466028e-12 	101324.9999999883
1.129879879879879 	300.0000000000198 	4.946241378499944e-12 	101324.999999988
1.132382382382382 	300.0000000000284 	4.536931738752706e-12 	101324.9999999877
1.134884884884884 	299.9999999999948 	4.800351892695593e-12 	101324.9999999877
1.137387387387387 	300.0000000000049 	4.907810754245212e-12 	101324.9999999876
1.139889889889889 	299.999999999951 	4.498093680718125e-12 	101324.9999999874
1.142392392392392 	299.999999999946 	5.229868656815884e-12 	101324.9999999873
1.144894894894894 	300.0000000000073 	4.346365666409223e-12 	101324.9999999873
1.147397397397397 	299.9999999999854 	5.327009929683299e-12 	101324.9999999875
1.149899899899899 	299.999999999921 	4.798744690996398e-12 	101324.9999999877
1.152402402402402 	299.9999999999108 	5.324482723997823e-12 	101324.9999999877
1.154904904904904 	299.9999999999531 	4.561489829989569e-12 	101324.9999999877
1.157407407407407 	299.9999999999521 	4.829219429593407e-12 	101324.9999999876
1.159909909909909 	299.999999999926 	4.549640545330458e-12 	101324.9999999877
1.162412412412412 	299.9999999999212 	3.539259585804915e-12 	101324.9999999877
1.164914914914914 	299.9999999999418 	4.602845080717252e-12 	101324.9999999876
1.167417417417417 	299.9999999999423 	3.856333616272815e-12 	101324.9999999875
1.169919919919919 	299.9999999999901 	4.547257139074655e-12 	101324.9999999876
1.172422422422422 	300.0000000000232 	4.106549107128206e-12 	101324.9999999875
1.174924924924925 	299.9999999999739 	4.977541169996426e-12 	101324.9999999874
1.177427427427427 	299.9999999999418 	4.586596032875875e-12 	101324.9999999875
1.179929929929929 	299.9999999999934 	3.899328108308576e-12 	101324.9999999875
1.182432432432432 	300.0000000000252 	4.929465605335297e-12 	101324.9999999877
1.184934934934934 	299.9999999999945 	4.717020159093296e-12 	101324.9999999877
1.187437437437437 	299.9999999999716 	6.077873467555676e-12 	101324.9999999879
1.189939939939939 	299.9999999999633 	5.95342009526397e-12 	101324.999999988
1.192442442442442 	299.9999999999201 	6.654052255972122e-12 	101324.999999988
1.194944944944944 	299.9999999999204 	5.814838429239722e-12 	101324.999999988
1.197447447447447 	299.9999999999824 	5.93095840651787e-12 	101324.9999999878
1.199949949949949 	300.0000000000002 	5.615002838181868e-12 	101324.9999999875
1.202452452452452 	299.9999999999419 	4.532000096049172e-12 	101324.9999999873
1.204954954954955 	299.9999999999309 	5.045290684231079e-12 	101324.9999999871
1.207457457457457 	299.9999999999652 	4.124230909647132e-12 	101324.9999999871
1.20995995995996 	299.9999999999656 	4.727771512270283e-12 	101324.9999999871
1.212462462462462 	299.9999999999779 	3.745931826381988e-12 	101324.9999999871
1.214964964964964 	299.9999999999821 	4.116971644276527e-12 	101324.9999999872
1.217467467467467 	299.9999999999858 	3.321264401235852e-12 	101324.9999999872
1.219969969969969 	299.9999999999606 	4.043322265931546e-12 	101324.9999999871
1.222472472472472 	300.0000000000042 	3.764748738435175e-12 	101324.999999987
1.224974974974975 	300.0000000000419 	3.490162089990342e-12 	101324.9999999868
1.227477477477477 	299.9999999999904 	4.338877870535017e-12 	101324.9999999868
1.229979979979979 	299.9999999999778 	3.472731729268846e-12 	101324.9999999869
1.232482482482482 	299.9999999999476 	4.471760675712296e-12 	101324.9999999869
1.234984984984984 	299.9999999999459 	3.487468785464121e-12 	101324.9999999869
1.237487487487487 	299.99999999997 	4.494273930463143e-12 	101324.9999999868
1.239989989989989 	299.9999999999734 	4.274515234908614e-12 	101324.999999987
1.242492492492492 	300.0000000000064 	4.043753247691624e-12 	101324.999999987
1.244994994994994 	299.999999999974 	4.987832330660068e-12 	101324.999999987
1.247497497497497 	299.9999999999848 	4.366803382471621e-12 	101324.9999999872
1.249999999999999 	300.0000000000277 	5.216476827676593e-12 	101324.9999999873
