-1.25 	250.8856374635656 	0.002504280107365499 	101325.0075398223
-1.247497497497497 	300.1051602235763 	0.002384784269177969 	101325.0049706719
-1.244994994994995 	300.000989767163 	0.002173084412681995 	101325.0074623672
-1.242492492492492 	300.0000070132665 	0.001961460553484549 	101325.0045520632
-1.23998998998999 	300.0000061726239 	0.001757363324569743 	101325.0073337059
-1.237487487487487 	300.0000036807549 	0.001561211016042193 	101325.0043189115
-1.234984984984985 	300.0000060133702 	0.001373954882783886 	101325.0071404379
-1.232482482482482 	300.0000035515584 	0.001196283181949093 	101325.0041666161
-1.22997997997998 	300.0000058364803 	0.001028097481069774 	101325.0069286041
-1.227477477477477 	300.0000035521538 	0.0008700748960670568 	101325.0041724155
-1.224974974974975 	300.0000057435164 	0.0007225381869132545 	101325.0068160125
-1.222472472472472 	300.0000035670678 	0.0005845545632925089 	101325.0041970699
-1.21996996996997 	300.0000054647161 	0.0004577130500942012 	101325.0064857469
-1.217467467467467 	300.0000033134624 	0.0003400058606494044 	101325.0038969823
-1.214964964964965 	300.0000050092771 	0.000233067856666078 	101325.0059422397
-1.212462462462462 	300.0000030702079 	0.0001349561659575084 	101325.0036078589
-1.20995995995996 	300.0000047206127 	4.70963353842151e-05 	101325.0055983545
-1.207457457457457 	300.0000029561766 	5.003958319248096e-05 	101325.0034783402
-1.204954954954955 	300.0000044708743 	0.0001030321434353503 	101325.0053063157
-1.202452452452452 	300.0000028167756 	0.0001661945409463796 	101325.0033131281
-1.19994994994995 	300.0000043137347 	0.0002206175475005421 	101325.0051166403
-1.197447447447447 	300.0000028565029 	0.0002686551481219122 	101325.0033578187
-1.194944944944945 	300.0000042408159 	0.0003089762108044616 	101325.005026206
-1.192442442442442 	300.0000027966826 	0.0003442838371282899 	101325.0032899203
-1.18993993993994 	300.000004153049 	0.0003720784997336849 	101325.0049293588
-1.187437437437437 	300.0000026835993 	0.0003955206375528967 	101325.0031621544
-1.184934934934935 	300.000003946777 	0.0004133846125795147 	101325.0046843385
-1.182432432432432 	300.00000222346 	0.000428743677027386 	101325.0026144147
-1.17992992992993 	300.0000034329013 	0.0004399740166941742 	101325.0040717027
-1.177427427427427 	300.0000020542693 	0.0004501746524376673 	101325.0024127187
-1.174924924924925 	300.0000033278492 	0.0004526821233944821 	101325.0039469831
-1.172422422422422 	300.0000019261221 	0.0004495801741901925 	101325.0022629737
-1.16991991991992 	300.0000028095632 	0.000442684534247019 	101325.0033345456
-1.167417417417417 	300.000001853729 	0.0004354498137363922 	101325.0021817028
-1.164914914914915 	300.0000030536387 	0.0004250539868193337 	101325.0036221017
-1.162412412412412 	300.0000017317709 	0.0004155295936385266 	101325.0020347088
-1.15990990990991 	300.0000028648428 	0.0004042497412022698 	101325.0033975091
-1.157407407407407 	300.0000014733111 	0.0003939518243962418 	101325.0017307326
-1.154904904904904 	300.0000029555629 	0.000380890796062799 	101325.0035046202
-1.152402402402403 	300.0000013738621 	0.0003683103704919567 	101325.0016155442
-1.1498998998999 	300.0000024945734 	0.0003540040156111445 	101325.0029602458
-1.147397397397397 	300.0000009359892 	0.000339376773106357 	101325.0011001794
-1.144894894894895 	300.0000020309518 	0.0003240583125171012 	101325.0024102418
-1.142392392392392 	300.0000006991517 	0.000309175358483036 	101325.0008178719
-1.13988988988989 	300.00000194257 	0.0002931613716371578 	101325.002302486
-1.137387387387387 	300.0000007834731 	0.0002786924965343981 	101325.0009181275
-1.134884884884885 	300.0000020232739 	0.000262616841611505 	101325.002395635
-1.132382382382382 	300.0000008716333 	0.0002485363175196257 	101325.0010244542
-1.12987987987988 	300.0000019648259 	0.000233231212487659 	101325.0023319685
-1.127377377377377 	300.0000007401608 	0.0002193418559303224 	101325.0008705552
-1.124874874874875 	300.0000016369558 	0.00020527180449934 	101325.0019399424
-1.122372372372372 	300.0000003560186 	0.000191760740888258 	101325.0004179516
-1.11986986986987 	300.0000011733929 	0.0001788627408177531 	101325.0013912329
-1.117367367367367 	300.000000028127 	0.0001662041870353202 	101325.0000295383
-1.114864864864865 	300.0000008984607 	0.00015416986220575 	101325.0010651573
-1.112362362362362 	299.9999999107327 	0.0001427014507863708 	101324.9998924693
-1.10985985985986 	300.0000007733125 	0.0001315054416781334 	101325.0009177507
-1.107357357357357 	299.9999998736459 	0.0001211074973863792 	101324.9998490424
-1.104854854854855 	300.0000006820114 	0.0001109596311905782 	101325.0008079642
-1.102352352352353 	299.9999998583623 	0.0001015472486278867 	101324.9998298441
-1.09984984984985 	300.0000006167705 	9.237246117605762e-05 	101325.0007290393
-1.097347347347347 	299.9999998712436 	8.393315524518468e-05 	101324.999844779
-1.094844844844845 	300.000000546428 	7.579305732841485e-05 	101325.0006457383
-1.092342342342342 	299.9999997866902 	6.811331787326658e-05 	101324.9997468831
-1.08983983983984 	300.0000002638099 	6.134531947621994e-05 	101325.0003140285
-1.087337337337337 	299.9999994338967 	5.373504229704903e-05 	101324.9993319638
-1.084834834834835 	299.9999997035027 	4.868285527338898e-05 	101324.9996509278
-1.082332332332332 	299.9999988918055 	4.166453861909405e-05 	101324.9986899321
-1.07982982982983 	299.999999338847 	3.70455368015763e-05 	101324.9992178387
-1.077327327327327 	299.9999990604845 	3.15203093442023e-05 	101324.9988878686
-1.074824824824825 	299.999999614774 	2.690818626684079e-05 	101324.9995430837
-1.072322322322323 	299.9999991712103 	2.250353422524578e-05 	101324.999019319
-1.06981981981982 	299.9999995073707 	1.944645978404892e-05 	101324.9994169654
-1.067317317317317 	299.9999992075037 	1.448340928571703e-05 	101324.9990625911
-1.064814814814815 	299.9999990937706 	1.131419277981629e-05 	101324.9989279974
-1.062312312312312 	299.9999991273003 	6.340581707543769e-06 	101324.9989678928
-1.05980980980981 	299.9999987891566 	4.632304777177825e-06 	101324.9985682464
-1.057307307307307 	299.9999987715174 	4.341934085110266e-06 	101324.9985478479
-1.054804804804805 	299.9999985631462 	3.753080557031915e-06 	101324.998301462
-1.052302302302302 	299.9999985009097 	4.396653800523077e-06 	101324.9982277345
-1.0497997997998 	299.9999984462396 	4.490679645348424e-06 	101324.9981630183
-1.047297297297297 	299.9999984207464 	4.570016435047716e-06 	101324.998132928
-1.044794794794795 	299.9999984098372 	4.606721007109467e-06 	101324.9981201746
-1.042292292292292 	299.9999983987107 	4.642287601278036e-06 	101324.998106983
-1.03978978978979 	299.9999983779354 	4.703715491496299e-06 	101324.9980822064
-1.037287287287287 	299.9999983449254 	4.799550341539641e-06 	101324.9980429808
-1.034784784784785 	299.9999983004882 	4.92873455483949e-06 	101324.9979903907
-1.032282282282283 	299.9999982443667 	5.092226669810723e-06 	101324.9979241775
-1.02977977977978 	299.9999981739426 	5.29744024820059e-06 	101324.9978410353
-1.027277277277277 	299.9999980856926 	5.553737630611424e-06 	101324.9977367098
-1.024774774774775 	299.9999979786476 	5.862693158460776e-06 	101324.9976099635
-1.022272272272272 	299.9999978578181 	6.207910703534594e-06 	101324.9974670702
-1.01976976976977 	299.9999977365151 	6.550703076312239e-06 	101324.9973240802
-1.017267267267267 	299.9999976342368 	6.837866607319109e-06 	101324.9972038715
-1.014764764764765 	299.9999975699282 	7.019758838273764e-06 	101324.9971281493
-1.012262262262262 	299.999997552902 	7.072606744310149e-06 	101324.9971075634
-1.00975975975976 	299.9999975765814 	7.014684998875525e-06 	101324.9971346015
-1.007257257257257 	299.9999976187833 	6.905121957261155e-06 	101324.9971837732
-1.004754754754755 	299.9999976496495 	6.825197126583555e-06 	101324.9972203918
-1.002252252252252 	299.9999976429796 	6.847475081755549e-06 	101324.997213494
-0.9997497497497498 	299.9999975862647 	7.008134858886445e-06 	101324.9971473118
-0.9972472472472473 	299.9999974849704 	7.294423387005447e-06 	101324.9970273841
-0.9947447447447449 	299.9999973594744 	7.650533484842212e-06 	101324.9968778922
-0.9922422422422421 	299.9999972359357 	8.002697089559828e-06 	101324.9967306515
-0.9897397397397399 	299.9999971360537 	8.287699211708742e-06 	101324.996612557
-0.9872372372372376 	299.9999970717663 	8.471148321448174e-06 	101324.9965378092
-0.9847347347347346 	299.9999970437781 	8.552131980915023e-06 	101324.9965062705
-0.9822322322322323 	299.999997044192 	8.554672352848631e-06 	101324.9965072327
-0.9797297297297296 	299.9999970610726 	8.512520711737779e-06 	101324.9965262305
-0.9772272272272275 	299.999997083178 	8.455665279156642e-06 	101324.9965507781
-0.9747247247247248 	299.9999971019795 	8.406363447908126e-06 	101324.9965719935
-0.9722222222222224 	299.9999971102974 	8.38423015258528e-06 	101324.9965822284
-0.9697197197197196 	299.9999971006119 	8.41207819427494e-06 	101324.9965721205
-0.9672172172172175 	299.9999970648773 	8.513556537610769e-06 	101324.9965313545
-0.9647147147147147 	299.9999969986097 	8.701838228165545e-06 	101324.9964537714
-0.9622122122122124 	299.99999690558 	8.965776860023023e-06 	101324.9963435715
-0.9597097097097099 	299.9999968006119 	9.262669040774655e-06 	101324.9962185089
-0.9572072072072073 	299.9999967070424 	9.526970757074057e-06 	101324.9961066502
-0.9547047047047047 	299.9999966490884 	9.691516298291977e-06 	101324.9960369435
-0.9522022022022023 	299.9999966418537 	9.714015405149692e-06 	101324.9960277115
-0.9496996996996998 	299.9999966845494 	9.597695998118898e-06 	101324.9960779274
-0.9471971971971973 	299.999996759132 	9.392742250976258e-06 	101324.996165984
-0.9446946946946947 	299.9999968369424 	9.177743475884958e-06 	101324.9962580206
-0.9421921921921923 	299.9999968904481 	9.029608031392064e-06 	101324.9963212189
-0.93968968968969 	299.9999969021609 	8.997001195551738e-06 	101324.9963350188
-0.9371871871871872 	299.999996869446 	9.087751324056588e-06 	101324.9962964475
-0.9346846846846848 	299.9999968031848 	9.272506519544276e-06 	101324.9962184334
-0.9321821821821823 	299.9999967219035 	9.500349341804285e-06 	101324.9961227533
-0.9296796796796799 	299.9999966446729 	9.718126104969558e-06 	101324.9960318227
-0.9271771771771771 	299.999996586211 	9.883363858695212e-06 	101324.9959630992
-0.9246746746746748 	299.999996555644 	9.969819748994726e-06 	101324.9959271956
-0.9221721721721724 	299.9999965565229 	9.967487830380393e-06 	101324.9959283197
-0.9196696696696698 	299.9999965877074 	9.878817705413796e-06 	101324.9959652264
-0.9171671671671672 	299.999996644047 	9.719337614128429e-06 	101324.9960317725
-0.9146646646646649 	299.9999967162702 	9.515359225262137e-06 	101324.9961169055
-0.9121621621621623 	299.9999967910234 	9.304219088433386e-06 	101324.9962050781
-0.9096596596596597 	299.9999968526959 	9.13107562978039e-06 	101324.9962780257
-0.9071571571571573 	299.9999968870407 	9.035354724630424e-06 	101324.9963186612
-0.9046546546546547 	299.9999968850346 	9.041452807182216e-06 	101324.9963164179
-0.9021521521521524 	299.9999968472131 	9.146666596037478e-06 	101324.9962719847
-0.8996496496496498 	299.9999967850174 	9.318904413129738e-06 	101324.9961986119
-0.8971471471471473 	299.9999967177962 	9.505282494545259e-06 	101324.9961192013
-0.894644644644645 	299.9999966675468 	9.643501719017003e-06 	101324.9960598591
-0.892142142142142 	299.9999966527554 	9.68149337189117e-06 	101324.9960424781
-0.8896396396396397 	299.9999966835763 	9.591555247592057e-06 	101324.9960790112
-0.8871371371371374 	299.9999967594003 	9.375579009018236e-06 	101324.9961688125
-0.8846346346346349 	299.9999968695064 	9.064108377656655e-06 	101324.9962989449
-0.8821321321321324 	299.9999969950069 	8.709198018692319e-06 	101324.9964471845
-0.8796296296296297 	299.9999971138795 	8.371667746446905e-06 	101324.9965876772
-0.8771271271271271 	299.9999972074351 	8.104018407994227e-06 	101324.9966983784
-0.8746246246246248 	299.9999972652943 	7.937066924388737e-06 	101324.9967668756
-0.8721221221221224 	299.9999972854607 	7.877275906067151e-06 	101324.9967907781
-0.8696196196196196 	299.9999972725516 	7.910768766943027e-06 	101324.9967755226
-0.8671171171171175 	299.999997237089 	8.007873649909725e-06 	101324.9967335489
-0.8646146146146148 	299.9999971937224 	8.127675713338502e-06 	101324.9966824558
-0.8621121121121121 	299.9999971576858 	8.228035105088278e-06 	101324.9966399804
-0.8596096096096097 	299.9999971398177 	8.277909749954102e-06 	101324.9966188232
-0.857107107107107 	299.9999971446475 	8.263611177329224e-06 	101324.996624381
-0.8546046046046049 	299.9999971725659 	8.183398280117041e-06 	101324.9966570736
-0.8521021021021022 	299.9999972221574 	8.040821419460163e-06 	101324.9967155603
-0.8495995995995997 	299.999997290648 	7.844380061059977e-06 	101324.9967967191
-0.8470970970970974 	299.9999973729021 	7.60739240100189e-06 	101324.9968943657
-0.8445945945945946 	299.9999974624113 	7.35052378247769e-06 	101324.9970002979
-0.8420920920920922 	299.9999975520772 	7.094435220900548e-06 	101324.9971060229
-0.8395895895895897 	299.9999976365082 	6.852023129733949e-06 	101324.9972054756
-0.8370870870870872 	299.9999977133866 	6.630489431854198e-06 	101324.9972961156
-0.8345845845845846 	299.9999977820622 	6.431220529684783e-06 	101324.9973773575
-0.8320820820820823 	299.9999978421182 	6.255309444650204e-06 	101324.9974487467
-0.8295795795795798 	299.9999978951239 	6.099370001426154e-06 	101324.9975118362
-0.8270770770770772 	299.9999979458041 	5.949149649212791e-06 	101324.9975718781
-0.8245745745745746 	299.9999980012762 	5.785941471150992e-06 	101324.9976374071
-0.8220720720720721 	299.9999980672003 	5.594532406981275e-06 	101324.9977150553
-0.8195695695695699 	299.9999981435724 	5.375698447304591e-06 	101324.9978050464
-0.817067067067067 	299.9999982246533 	5.144289268930824e-06 	101324.9979008181
-0.8145645645645651 	299.9999983034699 	4.91782725255934e-06 	101324.9979940636
-0.8120620620620621 	299.9999983754398 	4.709444236563855e-06 	101324.9980791987
-0.8095595595595597 	299.9999984398247 	4.521308730005492e-06 	101324.9981555189
-0.8070570570570572 	299.9999984994204 	4.345907329994976e-06 	101324.9982263104
-0.8045545545545546 	299.9999985597265 	4.169114491077491e-06 	101324.9982977032
-0.8020520520520523 	299.999998626514 	3.975448779392829e-06 	101324.9983762886
-0.7995495495495494 	299.9999987028588 	3.756237307063725e-06 	101324.9984659374
-0.7970470470470474 	299.9999987874642 	3.513957467921611e-06 	101324.998565532
-0.7945445445445446 	299.9999988758598 	3.259628029437605e-06 	101324.998670054
-0.7920420420420423 	299.9999989635726 	3.004826995577171e-06 	101324.9987744338
-0.7895395395395397 	299.9999990487832 	2.755560539185046e-06 	101324.9988762315
-0.7870370370370371 	299.9999991318216 	2.512966022523725e-06 	101324.9989751882
-0.7845345345345348 	299.9999992133183 	2.276650746906525e-06 	101324.9990715182
-0.7820320320320323 	299.9999992935414 	2.046039767676155e-06 	101324.9991653654
-0.7795295295295296 	299.9999993728965 	1.818374864087714e-06 	101324.9992578043
-0.7770270270270272 	299.9999994532982 	1.587331326852647e-06 	101324.9993516434
-0.7745245245245247 	299.9999995370295 	1.345484291696157e-06 	101324.9994502337
-0.7720220220220222 	299.9999996253091 	1.089241748325505e-06 	101324.9995550989
-0.7695195195195199 	299.9999997175029 	8.202367939360469e-07 	101324.9996652343
-0.767017017017017 	299.9999998127464 	5.419878953525725e-07 	101324.999778916
-0.7645145145145147 	299.9999999107639 	2.565420179004315e-07 	101324.9998953948
-0.7620120120120122 	300.0000000110369 	1.369556726365692e-07 	101325.0000141928
-0.7595095095095097 	300.0000001112709 	3.242900742872287e-07 	101325.0001331175
-0.7570070070070072 	300.0000002077644 	6.043516423131963e-07 	101325.0002479288
-0.7545045045045048 	300.0000002975631 	8.671812360293905e-07 	101325.0003551311
-0.7520020020020022 	300.0000003817703 	1.115548653066375e-06 	101325.0004557529
-0.7494994994994997 	300.0000004659371 	1.362333579455134e-06 	101325.0005555898
-0.7469969969969972 	300.0000005554683 	1.620800172680236e-06 	101325.000660709
-0.7444944944944945 	300.0000006514317 	1.894881737714759e-06 	101325.000772779
-0.7419919919919924 	300.0000007511549 	2.179181128223901e-06 	101325.0008891103
-0.7394894894894897 	300.0000008516978 	2.467804936680166e-06 	101325.0010069338
-0.7369869869869872 	300.0000009531933 	2.760737018777735e-06 	101325.0011264448
-0.7344844844844846 	300.000001056784 	3.06055266189558e-06 	101325.0012491027
-0.7319819819819822 	300.0000011619024 	3.364752878713707e-06 	101325.0013738747
-0.7294794794794797 	300.0000012649695 	3.664107627438517e-06 	101325.0014965022
-0.7269769769769773 	300.0000013627899 	3.949965100816055e-06 	101325.0016129544
-0.7244744744744747 	300.0000014557162 	4.222767593485946e-06 	101325.0017234565
-0.721971971971972 	300.0000015481789 	4.493187360737023e-06 	101325.0018329411
-0.7194694694694695 	300.0000016456716 	4.774185313632937e-06 	101325.0019473475
-0.7169669669669674 	300.0000017498136 	5.070543896383116e-06 	101325.0020688558
-0.7144644644644647 	300.0000018574578 	5.374660605134742e-06 	101325.0021939454
-0.711961961961962 	300.0000019624807 	5.672875051440559e-06 	101325.0023162503
-0.7094594594594597 	300.0000020613667 	5.957805560584792e-06 	101325.002432268
-0.7069569569569573 	300.0000021563894 	6.23535345584014e-06 	101325.0025447603
-0.7044544544544545 	300.0000022530554 	6.518636377437219e-06 	101325.0026599331
-0.7019519519519523 	300.0000023544018 	6.814367236758526e-06 	101325.0027809129
-0.6994494494494495 	300.0000024583211 	7.1169847852326e-06 	101325.0029048689
-0.6969469469469471 	300.000002561325 	7.417353015694021e-06 	101325.003027315
-0.6944444444444446 	300.0000026630534 	7.714688731043947e-06 	101325.0031480711
-0.6919419419419421 	300.0000027664768 	8.015376873686498e-06 	101325.0032707355
-0.6894394394394396 	300.0000028718245 	8.319563812432093e-06 	101325.0033959036
-0.6869369369369374 	300.0000029741209 	8.614122336354454e-06 	101325.0035174073
-0.6844344344344344 	300.0000030671771 	8.88441146982204e-06 	101325.0036278896
-0.6819319319319321 	300.0000031516865 	9.133131187605299e-06 	101325.0037281178
-0.6794294294294296 	300.0000032368591 	9.383277032167819e-06 	101325.0038286479
-0.6769269269269272 	300.0000033322743 	9.659427218641477e-06 	101325.003940904
-0.6744244244244245 	300.0000034398619 	9.96674084028945e-06 	101325.0040671541
-0.6719219219219222 	300.0000035526773 	1.028899376891814e-05 	101325.0041997321
-0.6694194194194195 	300.0000036625485 	1.060510790346589e-05 	101325.0043290668
-0.6669169169169172 	300.0000037657123 	1.090494754234129e-05 	101325.0044510409
-0.6644144144144146 	300.0000038633172 	1.119021039014389e-05 	101325.0045670154
-0.661911911911912 	300.0000039575313 	1.146503340301028e-05 	101325.0046790687
-0.6594094094094097 	300.0000040485888 	1.172994779578783e-05 	101325.0047871802
-0.656906906906907 	300.0000041362609 	1.198496994436569e-05 	101325.0048909496
-0.6544044044044046 	300.0000042223696 	1.223518664064079e-05 	101325.0049924737
-0.6519019019019021 	300.0000043104244 	1.249010141700541e-05 	101325.0050961061
-0.6493993993993996 	300.0000044028224 	1.27562972168434e-05 	101325.0052049414
-0.6468968968968971 	300.0000044985462 	1.303146797785382e-05 	101325.0053178904
-0.6443943943943946 	300.0000045942132 	1.330680427749915e-05 	101325.0054307872
-0.6418918918918921 	300.0000046875985 	1.357616491699728e-05 	101325.0055406752
-0.6393893893893897 	300.0000047796473 	1.384187062367806e-05 	101325.0056487378
-0.6368868868868871 	300.0000048727917 	1.411015779811449e-05 	101325.0057581901
-0.6343843843843846 	300.0000049667331 	1.438037419996331e-05 	101325.0058690597
-0.6318818818818821 	300.0000050567908 	1.464122659193317e-05 	101325.0059761518
-0.6293793793793795 	300.0000051385301 	1.488114663742394e-05 	101325.0060738243
-0.6268768768768773 	300.0000052132259 	1.510323553090124e-05 	101325.0061632523
-0.6243743743743745 	300.0000052889851 	1.532656478305284e-05 	101325.0062533475
-0.6218718718718721 	300.0000053728711 	1.556821535816528e-05 	101325.0063523528
-0.6193693693693696 	300.0000054626192 	1.582352203000214e-05 	101325.0064582523
-0.6168668668668671 	300.0000055485495 	1.606805859619554e-05 	101325.0065594188
-0.6143643643643645 	300.0000056224753 	1.628344463526259e-05 	101325.0066467779
-0.6118618618618621 	300.0000056884394 	1.648077220262988e-05 	101325.0067252372
-0.6093593593593596 	300.0000057604112 	1.669386212442455e-05 	101325.0068107847
-0.6068568568568571 	300.0000058478685 	1.694495252805748e-05 	101325.0069142895
-0.6043543543543546 	300.0000059447266 	1.721752210170668e-05 	101325.0070283632
-0.6018518518518521 	300.0000060333905 	1.746723967013332e-05 	101325.0071322833
-0.5993493493493496 	300.0000061011297 	1.766344756611071e-05 	101325.0072115324
-0.5968468468468471 	300.0000061529873 	1.781968670093253e-05 	101325.0072724306
-0.5943443443443446 	300.000006206618 	1.798036344329467e-05 	101325.0073359822
-0.591841841841842 	300.0000062740288 	1.817538960662509e-05 	101325.0074163829
-0.5893393393393397 	300.0000063494832 	1.838970141865142e-05 	101325.0075064261
-0.5868368368368371 	300.0000064160551 	1.858083115805049e-05 	101325.0075856962
-0.5843343343343346 	300.0000064650634 	1.87283417043109e-05 	101325.0076439225
-0.5818318318318321 	300.0000065086301 	1.886373707006917e-05 	101325.0076954318
-0.5793293293293297 	300.0000065701228 	1.904637780494639e-05 	101325.0077681385
-0.5768268268268271 	300.0000066611916 	1.930368257839149e-05 	101325.0078756855
-0.5743243243243245 	300.0000067658314 	1.959294479697748e-05 	101325.0079991738
-0.5718218218218221 	300.0000068499516 	1.982600371442966e-05 	101325.0080982226
-0.5693193193193196 	300.0000068894621 	1.994157957302972e-05 	101325.0081441388
-0.5668168168168171 	300.0000068928486 	1.996368324823506e-05 	101325.0081472089
-0.5643143143143147 	300.0000068982006 	1.999154279535881e-05 	101325.0081525041
-0.5618118118118121 	300.0000069435723 	2.01237948880833e-05 	101325.0082051827
-0.5593093093093094 	300.0000070354902 	2.037774850136619e-05 	101325.0083135171
-0.5568068068068072 	300.0000071424184 	2.06714193236589e-05 	101325.0084403412
-0.5543043043043046 	300.0000072186364 	2.088554809622399e-05 	101325.0085314188
-0.551801801801802 	300.0000072399587 	2.095731813230922e-05 	101325.0085579879
-0.5492992992992995 	300.0000072239566 	2.093131510262339e-05 	101325.0085401997
-0.5467967967967969 	300.0000072163775 	2.092654439260949e-05 	101325.0085321172
-0.5442942942942947 	300.000007256344 	2.104457051823971e-05 	101325.0085799304
-0.5417917917917919 	300.0000073457231 	2.128999796234803e-05 	101325.0086859591
-0.5392892892892895 	300.0000074467604 	2.156385625313543e-05 	101325.0088055696
-0.536786786786787 	300.0000075093212 	2.173481459259515e-05 	101325.0088795218
-0.5342842842842846 	300.0000075072992 	2.173525514747019e-05 	101325.0088770731
-0.531781781781782 	300.0000074587866 	2.16132645420363e-05 	101325.008819537
-0.5292792792792794 	300.0000074147089 	2.150298120364324e-05 	101325.0087669602
-0.526776776776777 	300.000007424321 	2.153472705227809e-05 	101325.0087776029
-0.5242742742742745 	300.0000075025072 	2.17473143868058e-05 	101325.0088689819
-0.521771771771772 	300.0000076190391 	2.206114064031823e-05 	101325.009005623
-0.5192692692692695 	300.0000077182399 	2.232873623689853e-05 	101325.0091219677
-0.516766766766767 	300.0000077545055 	2.242829379652355e-05 	101325.0091639054
-0.5142642642642645 	300.0000077198381 	2.233958609362745e-05 	101325.0091223567
-0.511761761761762 	300.000007649651 	2.215674872505516e-05 	101325.0090390967
-0.5092592592592596 	300.0000076003262 	2.203038981943503e-05 	101325.0089808103
-0.506756756756757 	300.000007615259 	2.207689829227905e-05 	101325.0089989548
-0.5042542542542544 	300.0000076994979 	2.230866553033759e-05 	101325.0090992572
-0.5017517517517521 	300.0000078153178 	2.262431302173826e-05 	101325.0092372103
-0.4992492492492494 	300.0000079030847 	2.286260191513398e-05 	101325.0093422207
-0.496746746746747 	300.0000079128287 	2.288839531755656e-05 	101325.0093550613
-0.4942442442442445 	300.0000078309253 	2.266540083575788e-05 	101325.0092593765
-0.4917417417417421 	300.0000076892644 	2.228061813630379e-05 	101325.0090927075
-0.4892392392392395 	300.0000075515429 	2.19075811096979e-05 	101325.008930295
-0.486736736736737 	300.0000074842903 	2.172862650008264e-05 	101325.0088508803
-0.4842342342342345 	300.0000075279865 	2.185418665154666e-05 	101325.0089024572
-0.481731731731732 	300.000007678751 	2.227199163654969e-05 	101325.0090802626
-0.4792292292292296 	300.0000078869355 	2.284659689152346e-05 	101325.0093261291
-0.4767267267267268 	300.0000080772637 	2.337017934555719e-05 	101325.0095510281
-0.4742242242242246 	300.0000081764841 	2.363895909647128e-05 	101325.0096681198
-0.471721721721722 	300.0000081378288 	2.3524404108128e-05 	101325.0096223537
-0.4692192192192195 	300.0000079581933 	2.301854067886581e-05 	101325.009409835
-0.4667167167167169 	300.0000076801572 	2.224030157898558e-05 	101325.0090810377
-0.4642142142142145 	300.0000073792232 	2.139840888717666e-05 	101325.0087248721
-0.461711711711712 	300.0000071387371 	2.07270649527548e-05 	101325.0084401921
-0.4592092092092094 	300.0000070282189 	2.042178870853017e-05 	101325.0083091461
-0.456706706706707 	300.000007086787 	2.05918119190426e-05 	101325.0083779483
-0.4542042042042045 	300.0000073132083 	2.123338756734114e-05 	101325.0086454751
-0.451701701701702 	300.0000076662324 	2.222980077052689e-05 	101325.0090626026
-0.4491991991991995 	300.0000080741834 	2.33811829674605e-05 	101325.0095448274
-0.4466966966966969 	300.0000084543096 	2.445411498351405e-05 	101325.0099942967
-0.4441941941941945 	300.0000087298341 	2.522968367289961e-05 	101325.010320143
-0.441691691691692 	300.0000088409187 	2.553729115574048e-05 	101325.0104517826
-0.4391891891891895 	300.0000087518761 	2.527411456402256e-05 	101325.0103467712
-0.436686686686687 	300.0000084530629 	2.441251604017309e-05 	101325.0099938461
-0.4341841841841846 	300.0000079600973 	2.299590896320193e-05 	101325.0094112799
-0.431681681681682 	300.0000073084485 	2.112507922166746e-05 	101325.0086411684
-0.4291791791791794 	300.0000065467571 	1.893747800614592e-05 	101325.0077408488
-0.426676676676677 	300.0000057280698 	1.658384905871723e-05 	101325.0067730732
-0.4241741741741744 	300.0000049023132 	1.420611740356335e-05 	101325.0057967527
-0.421671671671672 	300.0000041100303 	1.192110871231017e-05 	101325.0048599836
-0.4191691691691694 	300.0000033801398 	9.812782809938618e-06 	101325.0039969339
-0.4166666666666669 	300.0000027301046 	7.932625229039883e-06 	101325.0032283167
-0.4141641641641645 	300.0000021676883 	6.304337731646846e-06 	101325.0025634869
-0.411661661661662 	300.0000016938014 	4.930090406197606e-06 	101325.0020030225
-0.4091591591591594 	300.0000013033281 	3.796743719586081e-06 	101325.0015413055
-0.406656656656657 	300.0000009882718 	2.88150971606401e-06 	101325.0011688259
-0.4041541541541545 	300.00000073912 	2.156542554130892e-06 	101325.0008740709
-0.401651651651652 	300.0000005452524 	1.592494249628828e-06 	101325.0006449542
-0.3991491491491494 	300.0000003972451 	1.160920521715481e-06 	101325.0004698107
-0.396646646646647 	300.00000028576 	8.358813005586067e-07 	101325.0003380137
-0.3941441441441444 	300.0000002031603 	5.946789051030922e-07 	101325.0002402986
-0.3916416416416419 	300.0000001426981 	4.182188227778754e-07 	101325.0001688671
-0.3891391391391395 	300.000000099177 	2.908376566004028e-07 	101325.0001173477
-0.3866366366366368 	300.0000000681608 	2.000741482815973e-07 	101325.000080665
-0.3841341341341344 	300.0000000463914 	1.361884500134303e-07 	101325.0000548669
-0.381631631631632 	300.0000000311764 	9.175903166235373e-08 	101325.0000369383
-0.3791291291291294 	300.0000000208315 	6.120906294921129e-08 	101325.0000246206
-0.3766266266266269 	300.0000000137811 	4.043569964918185e-08 	101325.0000162505
-0.3741241241241244 	300.0000000090261 	2.646208056989015e-08 	101325.0000106236
-0.371621621621622 	300.0000000058465 	1.7156694753889e-08 	101325.00000688
-0.3691191191191194 	300.0000000037486 	1.102717945325408e-08 	101325.0000044145
-0.366616616616617 	300.0000000023894 	7.021952031674132e-09 	101325.0000028064
-0.3641141141141143 	300.0000000014487 	4.436752265772279e-09 	101325.0000017672
-0.3616116116116119 	300.0000000008763 	2.776328817229883e-09 	101325.0000011019
-0.3591091091091095 	300.0000000005701 	1.72522210460066e-09 	101325.0000006802
-0.356606606606607 	300.0000000003355 	1.0619150617014e-09 	101325.0000004149
-0.3541041041041044 	300.0000000002046 	6.488169551651193e-10 	101325.0000002496
-0.3516016016016019 	300.0000000001362 	3.942832352142731e-10 	101325.0000001471
-0.3490990990990994 	300.0000000000679 	2.364761838549311e-10 	101325.0000000842
-0.346596596596597 	300.0000000001031 	1.434064135919954e-10 	101325.0000000461
-0.3440940940940944 	300.0000000000936 	8.330897685902741e-11 	101325.0000000231
-0.3415915915915919 	300.0000000000436 	5.161642914826456e-11 	101325.0000000092
-0.3390890890890895 	299.9999999999864 	2.966832710281491e-11 	101325.0000000009
-0.3365865865865869 	300.0000000000306 	2.009081188267128e-11 	101324.9999999961
-0.3340840840840844 	300.0000000000061 	1.197162781982409e-11 	101324.9999999933
-0.3315815815815819 	300.0000000000272 	9.570318225160616e-12 	101324.9999999915
-0.3290790790790794 	300.0000000000278 	6.194101242186417e-12 	101324.9999999905
-0.3265765765765769 	299.9999999999048 	5.986799742411405e-12 	101324.9999999896
-0.3240740740740744 	299.9999999999935 	2.834752702969562e-12 	101324.9999999892
-0.3215715715715718 	300.000000000007 	4.344867048913039e-12 	101324.999999989
-0.3190690690690695 	299.9999999999134 	9.744462479444388e-13 	101324.9999999888
-0.3165665665665668 	299.999999999991 	3.405999372087609e-12 	101324.9999999889
-0.3140640640640644 	300.0000000000116 	5.698963802224379e-13 	101324.9999999887
-0.311561561561562 	299.9999999999036 	4.513287899547152e-12 	101324.9999999888
-0.3090590590590593 	299.9999999999918 	2.288634668200733e-12 	101324.9999999892
-0.3065565565565568 	300.0000000000038 	5.23705802857202e-12 	101324.9999999894
-0.3040540540540545 	299.999999999999 	2.634742022932441e-12 	101324.9999999896
-0.3015515515515518 	300.0000000000391 	4.634672415354112e-12 	101324.9999999895
-0.2990490490490494 	299.9999999999359 	1.331996080242912e-12 	101324.9999999899
-0.2965465465465469 	299.9999999999816 	3.056681931234176e-12 	101324.9999999899
-0.2940440440440444 	299.9999999999995 	1.517486828341966e-12 	101324.99999999
-0.2915415415415418 	300.000000000004 	3.716695030821567e-12 	101324.9999999898
-0.2890390390390395 	300.0000000000065 	4.277001355028767e-12 	101324.9999999899
-0.2865365365365368 	299.9999999999764 	4.560391714915794e-12 	101324.9999999899
-0.2840340340340343 	300.0000000000006 	6.598070048924545e-12 	101324.9999999901
-0.2815315315315318 	299.9999999999138 	4.896609228183972e-12 	101324.9999999901
-0.2790290290290295 	299.9999999999579 	6.748110081444786e-12 	101324.9999999898
-0.2765265265265269 	300.0000000000177 	5.399847630239604e-12 	101324.9999999895
-0.2740240240240244 	300.0000000000279 	5.738564414393178e-12 	101324.9999999891
-0.2715215215215219 	300.0000000000247 	5.156977850611162e-12 	101324.9999999889
-0.2690190190190194 	299.9999999999274 	5.041751903861997e-12 	101324.9999999886
-0.2665165165165169 	299.9999999999979 	5.575941552714034e-12 	101324.9999999883
-0.2640140140140144 	299.9999999999512 	4.715978048860414e-12 	101324.9999999881
-0.2615115115115119 	299.9999999999993 	6.033155004961639e-12 	101324.9999999882
-0.2590090090090094 	299.9999999999129 	4.590864216199517e-12 	101324.9999999882
-0.2565065065065068 	299.999999999993 	4.376945504623506e-12 	101324.9999999883
-0.2540040040040044 	299.9999999999964 	4.047541054710194e-12 	101324.9999999886
-0.2515015015015019 	300.0000000000454 	2.282326934181618e-12 	101324.9999999886
-0.2489989989989994 	300.0000000000531 	4.836322448443615e-12 	101324.9999999887
-0.2464964964964968 	299.9999999999879 	1.430797162518458e-12 	101324.9999999886
-0.2439939939939944 	300.0000000000014 	4.993201839336033e-12 	101324.9999999888
-0.2414914914914919 	299.9999999999653 	9.505610435002548e-13 	101324.9999999887
-0.2389889889889893 	300.0000000000018 	4.913566480854428e-12 	101324.9999999886
-0.2364864864864869 	300.0000000000301 	5.208882569207441e-13 	101324.9999999885
-0.2339839839839843 	299.9999999999079 	5.408925930571253e-12 	101324.9999999887
-0.2314814814814819 	299.9999999999778 	8.780485391278928e-13 	101324.9999999887
-0.2289789789789792 	299.9999999998973 	4.490123004190766e-12 	101324.999999989
-0.2264764764764769 	299.9999999999371 	1.666303223830376e-12 	101324.9999999894
-0.2239739739739743 	299.9999999999494 	4.346356466588381e-12 	101324.9999999897
-0.2214714714714718 	299.9999999999256 	3.087041935112875e-12 	101324.9999999898
-0.2189689689689693 	299.999999999962 	3.390300545963484e-12 	101324.9999999894
-0.2164664664664669 	299.9999999999742 	4.371368144584691e-12 	101324.9999999895
-0.2139639639639643 	299.9999999999129 	3.203635298519187e-12 	101324.9999999896
-0.2114614614614618 	299.9999999999687 	3.837929580257049e-12 	101324.9999999893
-0.2089589589589593 	299.9999999999885 	3.802473388384549e-12 	101324.9999999889
-0.2064564564564568 	299.9999999999872 	3.138728328525607e-12 	101324.999999989
-0.2039539539539543 	299.9999999998849 	4.355974839153804e-12 	101324.999999989
-0.2014514514514518 	299.9999999999397 	1.782890985534237e-12 	101324.9999999886
-0.1989489489489494 	299.9999999999603 	5.186126527997744e-12 	101324.9999999888
-0.1964464464464468 	299.9999999999879 	1.229040498204278e-12 	101324.9999999888
-0.1939439439439443 	299.9999999999879 	5.248778744467057e-12 	101324.999999989
-0.1914414414414418 	299.9999999998957 	2.251345607161487e-12 	101324.9999999889
-0.1889389389389393 	300.0000000000125 	4.995566029504104e-12 	101324.9999999886
-0.1864364364364368 	300.0000000000576 	3.578909010426577e-12 	101324.9999999886
-0.1839339339339343 	299.9999999999692 	5.389445848271965e-12 	101324.9999999888
-0.1814314314314318 	299.9999999999932 	3.240532638585914e-12 	101324.9999999888
-0.1789289289289293 	299.9999999998774 	6.292584246197211e-12 	101324.9999999888
-0.1764264264264268 	299.9999999999746 	3.223216508175564e-12 	101324.9999999888
-0.1739239239239243 	299.9999999998749 	7.121954096363186e-12 	101324.999999989
-0.1714214214214218 	299.9999999999782 	1.294751500294059e-12 	101324.999999989
-0.1689189189189193 	299.999999999935 	7.192014462697802e-12 	101324.9999999894
-0.1664164164164168 	299.9999999999979 	1.730670992539162e-12 	101324.9999999893
-0.1639139139139143 	299.9999999999798 	7.844665385894508e-12 	101324.9999999894
-0.1614114114114118 	300.0000000000326 	3.122187306162005e-12 	101324.9999999894
-0.1589089089089093 	300.0000000000002 	1.011504406192691e-11 	101324.9999999897
-0.1564064064064068 	299.9999999999826 	3.9266640365294e-12 	101324.9999999896
-0.1539039039039043 	299.9999999999868 	1.10152889773939e-11 	101324.9999999895
-0.1514014014014018 	300.0000000000303 	3.233969399679215e-12 	101324.9999999893
-0.1488988988988993 	299.9999999999816 	9.484768142317355e-12 	101324.9999999891
-0.1463963963963968 	299.9999999999968 	2.957277866558477e-12 	101324.9999999891
-0.1438938938938943 	299.9999999999417 	7.469202957681693e-12 	101324.9999999889
-0.1413913913913918 	299.9999999999077 	1.967515449970321e-12 	101324.999999989
-0.1388888888888893 	299.999999999975 	5.342028850817914e-12 	101324.9999999889
-0.1363863863863868 	299.9999999998632 	8.983401711858101e-13 	101324.9999999889
-0.1338838838838843 	299.9999999998848 	3.668000355528869e-12 	101324.9999999889
-0.1313813813813818 	299.9999999999934 	2.663449995910804e-13 	101324.9999999887
-0.1288788788788793 	299.9999999999465 	4.132450982761113e-12 	101324.9999999886
-0.1263763763763768 	299.9999999999634 	4.364907508860437e-13 	101324.9999999887
-0.1238738738738743 	299.9999999999048 	4.371756487386297e-12 	101324.9999999887
-0.1213713713713717 	299.9999999999615 	5.133975269019207e-13 	101324.9999999889
-0.1188688688688693 	300.0000000000019 	5.495957253050861e-12 	101324.9999999891
-0.1163663663663668 	299.999999999881 	7.006880405630706e-13 	101324.9999999889
-0.1138638638638643 	299.9999999999917 	5.975517118747402e-12 	101324.9999999891
-0.1113613613613618 	299.9999999999853 	1.222811716963173e-12 	101324.9999999894
-0.1088588588588592 	299.9999999999702 	6.573197578834966e-12 	101324.9999999894
-0.1063563563563568 	299.9999999999317 	1.013846287414052e-12 	101324.9999999894
-0.1038538538538543 	299.9999999999575 	5.891992098090296e-12 	101324.9999999895
-0.1013513513513517 	300.0000000000198 	1.311322716572969e-12 	101324.9999999896
-0.09884884884884926 	299.9999999999259 	5.922354569718211e-12 	101324.9999999893
-0.09634634634634676 	299.9999999998537 	2.135934373916976e-12 	101324.9999999889
-0.09384384384384425 	299.9999999999101 	4.558497432245173e-12 	101324.9999999889
-0.09134134134134177 	300.000000000029 	1.738274212890711e-12 	101324.9999999888
-0.08883883883883925 	300.00000000001 	3.660958498657196e-12 	101324.9999999887
-0.08633633633633674 	299.9999999999371 	1.900192277878026e-12 	101324.9999999885
-0.08383383383383426 	300.0000000000133 	2.572290190591871e-12 	101324.9999999886
-0.08133133133133173 	299.9999999999594 	1.942478948751858e-12 	101324.9999999887
-0.07882882882882926 	299.9999999998496 	2.113428153615999e-12 	101324.9999999885
-0.07632632632632676 	299.9999999999404 	1.974441239076791e-12 	101324.9999999886
-0.07382382382382424 	299.9999999998683 	1.882207585089981e-12 	101324.9999999888
-0.07132132132132173 	300.0000000000174 	1.650976092718443e-12 	101324.9999999892
-0.06881881881881925 	299.9999999999402 	2.091482434137197e-12 	101324.9999999892
-0.06631631631631671 	299.9999999998685 	9.903042376862648e-13 	101324.9999999893
-0.06381381381381425 	299.9999999999539 	1.093563571438198e-12 	101324.9999999895
-0.06131131131131173 	299.9999999999569 	1.552692830329312e-12 	101324.9999999894
-0.05880880880880923 	299.9999999998989 	1.659180050141994e-12 	101324.9999999894
-0.05630630630630672 	299.9999999999691 	1.154249622245488e-12 	101324.9999999893
-0.05380380380380424 	300.0000000000202 	1.5679746174494e-12 	101324.9999999894
-0.05130130130130173 	300.0000000000153 	2.096891439477712e-12 	101324.9999999893
-0.04879879879879922 	299.9999999999172 	2.464849245865379e-12 	101324.999999989
-0.04629629629629672 	299.9999999998956 	1.681251580332454e-12 	101324.9999999889
-0.04379379379379422 	299.9999999999181 	1.196723902980418e-12 	101324.9999999889
-0.04129129129129173 	299.9999999999716 	5.268586159779796e-13 	101324.9999999888
-0.03878878878878922 	299.9999999999791 	5.044798594598983e-13 	101324.9999999887
-0.03628628628628671 	299.9999999999773 	3.402288320360416e-13 	101324.9999999887
-0.03378378378378422 	299.9999999999028 	2.036557856839771e-13 	101324.9999999887
-0.03128128128128172 	299.9999999999533 	6.705024130034413e-13 	101324.9999999884
-0.02877877877877922 	299.9999999999534 	5.571447267058504e-13 	101324.9999999883
-0.0262762762762767 	299.9999999998752 	9.788596808559514e-13 	101324.9999999884
-0.02377377377377422 	300.0000000000238 	1.146068182494469e-12 	101324.9999999885
-0.0212712712712717 	299.99999999988 	1.141329519067236e-12 	101324.9999999887
-0.01876876876876921 	299.9999999999512 	1.617007675572344e-12 	101324.9999999888
-0.01626626626626671 	300.0000000000164 	5.109735226632934e-13 	101324.9999999886
-0.0137637637637642 	299.9999999999589 	5.892852831844926e-13 	101324.9999999887
-0.0112612612612617 	300.0000000000156 	1.547692672191092e-13 	101324.9999999887
-0.008758758758759198 	299.9999999999912 	4.416093503309582e-13 	101324.999999989
-0.006256256256256697 	299.9999999998564 	1.277382878035959e-12 	101324.9999999893
-0.003753753753754195 	299.999999999939 	3.599545058136256e-13 	101324.9999999896
-0.001251251251251693 	299.9999999999064 	7.772050572415078e-13 	101324.9999999897
0.00125125125125081 	299.9999999999407 	2.193722296518317e-13 	101324.9999999897
0.003753753753753312 	299.9999999999496 	8.19138286118506e-13 	101324.9999999896
0.006256256256255817 	299.999999999854 	3.715993618360134e-13 	101324.9999999894
0.008758758758758317 	299.9999999999937 	6.342754434554513e-13 	101324.9999999895
0.01126126126126082 	300.0000000000097 	7.973305886874502e-13 	101324.9999999896
0.01376376376376332 	299.9999999999586 	1.240487453825851e-12 	101324.9999999894
0.01626626626626582 	300.0000000000147 	1.047384733470046e-12 	101324.9999999893
0.01876876876876833 	299.9999999999405 	1.275917957314531e-12 	101324.999999989
0.02127127127127083 	299.9999999999599 	7.438911535803348e-13 	101324.9999999888
0.02377377377377332 	299.9999999999939 	1.169671642111664e-12 	101324.9999999887
0.02627627627627583 	299.9999999998703 	9.562220111913147e-13 	101324.9999999886
0.02877877877877833 	300.0000000000093 	6.16226899641016e-13 	101324.9999999883
0.03128128128128083 	299.9999999999351 	7.5817611761627e-13 	101324.9999999881
0.03378378378378333 	299.9999999998783 	3.252939420758106e-14 	101324.9999999878
0.03628628628628584 	299.9999999999571 	4.15752656243371e-13 	101324.9999999876
0.03878878878878834 	299.9999999999715 	4.992001201385659e-13 	101324.9999999874
0.04129129129129084 	299.9999999999685 	2.381507992360109e-13 	101324.9999999874
0.04379379379379333 	299.999999999928 	3.817842952836507e-13 	101324.9999999874
0.04629629629629585 	299.999999999859 	1.569162934384628e-13 	101324.9999999875
0.04879879879879834 	299.9999999999429 	4.626399710176432e-13 	101324.9999999877
0.05130130130130085 	300.0000000000147 	9.098886737022715e-14 	101324.9999999877
0.05380380380380335 	300.0000000000252 	5.084794902130598e-14 	101324.9999999877
0.05630630630630584 	299.9999999999898 	1.483285750356275e-13 	101324.9999999877
0.05880880880880836 	299.9999999998963 	1.758063730443783e-13 	101324.9999999877
0.06131131131131085 	299.9999999999604 	4.696751334109657e-13 	101324.9999999876
0.06381381381381336 	299.9999999999462 	8.486077953298289e-13 	101324.9999999875
0.06631631631631586 	299.9999999998627 	4.752826006652389e-13 	101324.9999999879
0.06881881881881835 	299.9999999999422 	3.274376114826885e-13 	101324.9999999881
0.07132132132132088 	299.9999999999853 	2.945790477174358e-13 	101324.9999999881
0.07382382382382337 	299.999999999869 	1.901281524898432e-14 	101324.9999999882
0.07632632632632587 	299.9999999999567 	1.939137774637173e-13 	101324.9999999882
0.07882882882882837 	299.9999999999242 	3.558963977179758e-13 	101324.9999999884
0.08133133133133086 	299.9999999999748 	1.057922542622996e-12 	101324.9999999885
0.08383383383383337 	299.999999999982 	1.193003063044163e-12 	101324.9999999884
0.08633633633633589 	299.9999999998822 	2.112723264526195e-12 	101324.9999999881
0.08883883883883838 	300.0000000000055 	2.772121843521158e-12 	101324.9999999884
0.09134134134134086 	299.9999999999752 	2.210583443482385e-12 	101324.9999999886
0.09384384384384339 	299.9999999998672 	2.71912980036114e-12 	101324.9999999885
0.09634634634634588 	299.9999999999602 	2.738217218991315e-12 	101324.9999999886
0.09884884884884838 	299.9999999999663 	2.84600545504656e-12 	101324.9999999886
0.1013513513513509 	300.0000000000235 	3.114742683960818e-12 	101324.9999999888
0.1038538538538534 	299.9999999999403 	2.857901885330723e-12 	101324.9999999886
0.1063563563563559 	300.0000000000152 	3.113755033946178e-12 	101324.9999999887
0.1088588588588584 	300.0000000000273 	1.616026928479131e-12 	101324.9999999887
0.1113613613613609 	299.9999999998938 	1.868014332613808e-12 	101324.9999999887
0.1138638638638634 	299.9999999999368 	2.182769791681834e-12 	101324.9999999888
0.1163663663663659 	299.9999999999408 	2.001284066511139e-12 	101324.9999999889
0.1188688688688684 	299.9999999999551 	1.552667879406618e-12 	101324.9999999888
0.1213713713713709 	299.9999999999961 	5.130926295871037e-13 	101324.9999999886
0.1238738738738734 	299.9999999999073 	3.139011929338451e-13 	101324.9999999888
0.1263763763763759 	299.9999999999814 	9.099106132048202e-15 	101324.9999999887
0.1288788788788784 	299.9999999999821 	7.154730889953979e-14 	101324.9999999886
0.1313813813813809 	299.9999999999816 	5.74387484588721e-14 	101324.9999999886
0.1338838838838834 	299.9999999999665 	2.684180194417066e-13 	101324.9999999887
0.1363863863863859 	300.0000000000271 	2.505938049234882e-13 	101324.9999999886
0.1388888888888884 	300.0000000000578 	1.502811335301618e-13 	101324.9999999883
0.1413913913913909 	300.0000000000041 	8.146261250362088e-13 	101324.9999999881
0.1438938938938934 	299.9999999999869 	8.651722767732194e-13 	101324.999999988
0.1463963963963959 	299.9999999999427 	3.116069302107588e-13 	101324.9999999882
0.1488988988988985 	299.9999999998843 	2.193677254231992e-12 	101324.9999999883
0.1514014014014009 	299.99999999996 	7.197054543799498e-13 	101324.9999999883
0.1539039039039035 	299.999999999953 	3.379845533033491e-12 	101324.9999999885
0.1564064064064059 	299.9999999999146 	6.156155604089351e-13 	101324.9999999887
0.1589089089089084 	299.9999999999658 	3.828099297263021e-12 	101324.9999999886
0.1614114114114109 	299.9999999999616 	7.137988703809905e-13 	101324.999999989
0.1639139139139134 	299.9999999998959 	2.753251968762372e-12 	101324.9999999892
0.166416416416416 	300.000000000008 	9.032936205057123e-13 	101324.9999999892
0.1689189189189185 	300.0000000000438 	1.234918744699932e-12 	101324.9999999891
0.1714214214214209 	300.0000000000099 	1.512425127464044e-12 	101324.9999999893
0.1739239239239235 	299.9999999999923 	7.297517464614394e-13 	101324.9999999892
0.1764264264264259 	299.9999999999588 	2.15673881124485e-12 	101324.9999999893
0.1789289289289284 	300.0000000000114 	3.656207564050088e-13 	101324.9999999894
0.181431431431431 	299.9999999999563 	2.845475898701547e-12 	101324.9999999891
0.1839339339339334 	299.9999999999649 	1.228022888361766e-12 	101324.999999989
0.186436436436436 	299.9999999999115 	2.520588121049863e-12 	101324.9999999887
0.1889389389389385 	299.9999999999786 	2.097001157644138e-12 	101324.9999999884
0.191441441441441 	299.9999999999714 	1.211488067764237e-12 	101324.9999999886
0.1939439439439434 	299.9999999998926 	2.87827833222533e-12 	101324.9999999885
0.196446446446446 	299.9999999999263 	1.535670680739442e-12 	101324.9999999886
0.1989489489489485 	299.9999999999601 	3.57739451873705e-12 	101324.9999999885
0.2014514514514509 	299.9999999999786 	1.580130612655432e-12 	101324.9999999886
0.2039539539539535 	299.9999999999883 	2.552460677349402e-12 	101324.9999999886
0.2064564564564559 	299.9999999999465 	1.135883911350652e-12 	101324.9999999885
0.2089589589589585 	299.9999999999806 	9.931420827867549e-13 	101324.9999999888
0.211461461461461 	299.9999999999129 	1.421283584027431e-12 	101324.9999999889
0.2139639639639635 	299.9999999999736 	1.082424200768635e-12 	101324.9999999886
0.2164664664664659 	300.0000000000057 	2.687702507478907e-12 	101324.9999999886
0.2189689689689684 	300.0000000000049 	7.713243453132297e-13 	101324.9999999888
0.221471471471471 	300 	3.29665574677545e-12 	101324.9999999887
0.2239739739739735 	299.9999999999432 	7.009160339684973e-13 	101324.9999999886
0.226476476476476 	299.9999999999814 	1.974515540390329e-12 	101324.9999999886
0.2289789789789785 	299.9999999999889 	6.788480866577099e-13 	101324.9999999884
0.231481481481481 	299.9999999999592 	1.292571928030207e-12 	101324.9999999883
0.2339839839839835 	299.9999999999944 	1.788525825584742e-12 	101324.9999999882
0.236486486486486 	300.00000000003 	2.764858751132375e-13 	101324.9999999881
0.2389889889889885 	299.999999999998 	1.680506288676509e-12 	101324.9999999882
0.241491491491491 	299.9999999998938 	4.839364143388586e-13 	101324.9999999883
0.2439939939939935 	299.9999999999724 	3.942762734674001e-12 	101324.9999999884
0.246496496496496 	299.9999999999874 	1.612725006297286e-12 	101324.9999999884
0.2489989989989985 	300.0000000000442 	3.309706550332336e-12 	101324.9999999882
0.251501501501501 	300.0000000000365 	2.53732639011999e-12 	101324.9999999877
0.2540040040040035 	299.9999999999802 	2.571967199670861e-12 	101324.9999999877
0.256506506506506 	300.0000000000283 	2.503144811473959e-12 	101324.9999999877
0.2590090090090086 	299.9999999998897 	1.230563187592369e-12 	101324.9999999875
0.261511511511511 	300.0000000000063 	3.221463258235603e-12 	101324.9999999873
0.2640140140140135 	299.9999999999903 	8.194640783546792e-13 	101324.9999999874
0.2665165165165161 	299.9999999999134 	1.941611856511681e-12 	101324.9999999877
0.2690190190190185 	300.0000000000164 	7.991611224909759e-13 	101324.9999999879
0.271521521521521 	300.0000000000165 	1.653093519774414e-12 	101324.9999999881
0.2740240240240235 	300.0000000000169 	1.20033123425716e-12 	101324.9999999885
0.276526526526526 	300.000000000006 	9.893930602724188e-13 	101324.9999999887
0.2790290290290286 	299.9999999999249 	1.329898835415171e-12 	101324.9999999887
0.281531531531531 	299.9999999999032 	5.904890155273068e-13 	101324.9999999885
0.2840340340340335 	299.999999999976 	1.350543651622859e-12 	101324.9999999886
0.2865365365365361 	299.9999999999471 	1.071994038074963e-13 	101324.9999999885
0.2890390390390385 	299.9999999999903 	1.919782501707619e-13 	101324.9999999886
0.291541541541541 	299.99999999999 	3.30513845219961e-13 	101324.9999999882
0.2940440440440436 	299.9999999999873 	1.343432940826667e-12 	101324.9999999881
0.296546546546546 	299.9999999999851 	1.334186730268807e-12 	101324.999999988
0.2990490490490486 	299.9999999999175 	2.367690428419924e-12 	101324.9999999882
0.3015515515515511 	300.0000000000435 	2.909727892332594e-12 	101324.9999999881
0.3040540540540535 	300.0000000000104 	3.329716283293305e-12 	101324.9999999882
0.3065565565565562 	299.9999999999793 	3.713370204227238e-12 	101324.9999999883
0.3090590590590585 	299.9999999999804 	2.795538992172145e-12 	101324.9999999882
0.3115615615615611 	299.9999999999176 	2.954853055615218e-12 	101324.9999999883
0.3140640640640635 	300.0000000000079 	2.011447649707514e-12 	101324.9999999883
0.316566566566566 	299.9999999999899 	1.747708634240331e-12 	101324.9999999883
0.3190690690690687 	299.9999999999313 	1.85184280258443e-12 	101324.9999999884
0.3215715715715711 	300.0000000000169 	1.5086667639697e-12 	101324.9999999885
0.3240740740740735 	299.9999999999971 	1.918739457979888e-12 	101324.9999999884
0.326576576576576 	299.999999999883 	1.294780554462002e-12 	101324.9999999886
0.3290790790790786 	300.0000000000082 	6.611235566072874e-13 	101324.9999999888
0.3315815815815811 	300.0000000000434 	9.649458682587503e-13 	101324.9999999885
0.3340840840840836 	299.9999999999812 	6.415733768972476e-13 	101324.9999999885
0.3365865865865861 	300.0000000000671 	1.37571366018961e-12 	101324.9999999885
0.3390890890890886 	300.0000000000566 	4.787485824418388e-13 	101324.9999999883
0.3415915915915911 	300.0000000000001 	1.480583661028208e-12 	101324.9999999884
0.3440940940940935 	299.9999999999452 	7.417166783899894e-13 	101324.9999999886
0.3465965965965962 	300.00000000004 	1.776584329052282e-12 	101324.9999999889
0.3490990990990985 	300.0000000000301 	2.706382307434472e-13 	101324.9999999891
0.3516016016016011 	299.9999999999881 	6.265978272238783e-13 	101324.9999999892
0.3541041041041035 	300.0000000000072 	7.444425631008682e-13 	101324.9999999891
0.3566066066066061 	299.9999999999411 	4.792746210145112e-13 	101324.9999999892
0.3591091091091085 	299.9999999999034 	1.992906498595687e-12 	101324.9999999891
0.3616116116116112 	299.9999999999246 	1.587151389067201e-12 	101324.999999989
0.3641141141141137 	299.9999999999171 	2.525946931201701e-12 	101324.9999999888
0.3666166166166161 	299.9999999999105 	1.708213466137753e-12 	101324.9999999888
0.3691191191191185 	300.0000000000508 	4.379672379476702e-12 	101324.9999999888
0.371621621621621 	300.0000000000166 	1.631430765018655e-12 	101324.9999999888
0.3741241241241237 	300.0000000000666 	3.316091187362061e-12 	101324.9999999889
0.3766266266266261 	300.0000000000368 	1.502272752422544e-12 	101324.9999999888
0.3791291291291286 	299.9999999999819 	1.636879700525265e-12 	101324.9999999887
0.3816316316316311 	299.9999999999093 	2.341342787576216e-12 	101324.9999999888
0.3841341341341336 	300.00000000002 	1.603976276388765e-12 	101324.999999989
0.3866366366366362 	299.9999999999993 	1.218175889153699e-12 	101324.9999999892
0.3891391391391387 	299.9999999999447 	1.531943885641017e-12 	101324.999999989
0.391641641641641 	299.9999999999979 	1.150447546861546e-12 	101324.9999999892
0.3941441441441436 	300.0000000000098 	1.181054118098296e-12 	101324.9999999894
0.3966466466466462 	300.0000000000003 	8.352292498371202e-13 	101324.9999999893
0.3991491491491486 	299.9999999999399 	1.723486637571316e-12 	101324.9999999894
0.4016516516516512 	299.9999999998934 	7.767179013979875e-13 	101324.9999999895
0.4041541541541536 	299.9999999999337 	2.347363591604634e-12 	101324.9999999895
0.4066566566566561 	299.9999999999367 	9.933656159092989e-13 	101324.9999999895
0.4091591591591587 	299.9999999999908 	2.570271400746758e-12 	101324.9999999894
0.4116616616616612 	300.0000000000069 	1.087060844142417e-12 	101324.9999999893
0.4141641641641635 	300.0000000000562 	1.435548232157285e-12 	101324.9999999892
0.4166666666666662 	299.9999999999967 	1.460987189336271e-12 	101324.9999999892
0.4191691691691687 	299.9999999999297 	1.018178573799562e-12 	101324.9999999893
0.421671671671671 	300.0000000000208 	2.412556457870876e-12 	101324.9999999893
0.4241741741741737 	299.9999999999724 	2.017255114579902e-12 	101324.9999999894
0.4266766766766761 	299.9999999999467 	3.881215582141821e-12 	101324.9999999895
0.4291791791791785 	300.0000000000246 	2.246562672224592e-12 	101324.9999999897
0.4316816816816812 	300.0000000000153 	4.073046382514128e-12 	101324.9999999894
0.4341841841841836 	299.9999999999814 	2.482662603387371e-12 	101324.9999999893
0.4366866866866862 	299.9999999999006 	2.789546868709944e-12 	101324.9999999896
0.4391891891891885 	299.9999999999795 	1.741010279995603e-12 	101324.9999999894
0.4416916916916913 	299.9999999999768 	2.111121472534076e-12 	101324.9999999894
0.4441941941941936 	299.9999999999831 	1.117068430557294e-12 	101324.9999999894
0.4466966966966961 	299.9999999998999 	2.240006990174927e-12 	101324.9999999893
0.4491991991991987 	299.9999999999756 	1.757827871564178e-12 	101324.9999999895
0.4517017017017012 	299.9999999999688 	2.611496049458774e-12 	101324.9999999897
0.4542042042042035 	299.9999999999881 	1.99699911476626e-12 	101324.9999999897
0.4567067067067062 	299.9999999999973 	1.36415228257815e-12 	101324.9999999899
0.4592092092092087 	299.9999999999128 	1.419459091920053e-12 	101324.9999999901
0.4617117117117112 	300.0000000000228 	1.743689224261703e-12 	101324.9999999902
0.4642142142142137 	299.9999999999545 	2.311076131470393e-12 	101324.9999999901
0.4667167167167162 	299.9999999999953 	2.585546059869677e-12 	101324.99999999
0.4692192192192187 	299.9999999999445 	2.405433203450014e-12 	101324.99999999
0.4717217217217212 	300.0000000000197 	2.542803836167684e-12 	101324.9999999902
0.4742242242242236 	299.9999999999549 	1.913803037093374e-12 	101324.9999999901
0.4767267267267262 	299.9999999999595 	1.942094553371293e-12 	101324.9999999902
0.4792292292292287 	300.0000000000233 	1.133517415887537e-12 	101324.9999999899
0.4817317317317312 	300.0000000000421 	5.698435518248833e-14 	101324.9999999897
0.4842342342342336 	299.9999999999785 	4.149418800168872e-13 	101324.9999999897
0.4867367367367362 	299.9999999999465 	1.19260752026921e-12 	101324.9999999894
0.4892392392392387 	300.0000000000344 	6.046666449961124e-13 	101324.9999999892
0.4917417417417412 	300.0000000000081 	1.955435529255098e-12 	101324.9999999891
0.4942442442442437 	299.999999999891 	7.693152573584033e-13 	101324.9999999893
0.4967467467467462 	299.9999999999133 	1.684390440102287e-12 	101324.9999999892
0.4992492492492487 	299.9999999999059 	1.326443135039051e-12 	101324.9999999892
0.5017517517517511 	299.9999999999526 	9.653054711299039e-13 	101324.9999999895
0.5042542542542537 	299.9999999999607 	1.985657415544857e-12 	101324.9999999898
0.5067567567567562 	299.9999999999387 	2.60607176035442e-12 	101324.9999999897
0.5092592592592589 	299.9999999999595 	2.810725610797222e-12 	101324.9999999896
0.5117617617617611 	299.9999999999551 	3.940295719551215e-12 	101324.9999999894
0.5142642642642637 	299.9999999999905 	2.326752835198068e-12 	101324.9999999894
0.5167667667667663 	299.9999999999715 	4.667964173900752e-12 	101324.9999999893
0.5192692692692688 	299.9999999999043 	1.827600599246859e-12 	101324.999999989
0.5217717717717714 	299.9999999999375 	6.069948692443842e-12 	101324.999999989
0.5242742742742736 	299.9999999999371 	1.444359558850368e-12 	101324.9999999888
0.5267767767767763 	299.9999999999577 	5.129150619300752e-12 	101324.9999999888
0.5292792792792789 	299.9999999999334 	1.738106416850367e-12 	101324.999999989
0.5317817817817813 	299.9999999998955 	4.822678322667431e-12 	101324.9999999891
0.5342842842842837 	300.0000000000175 	3.258857468099014e-12 	101324.9999999895
0.5367867867867864 	300.0000000000027 	5.013842053876703e-12 	101324.9999999897
0.5392892892892888 	299.9999999999495 	3.138460486870949e-12 	101324.9999999896
0.5417917917917912 	300.0000000000006 	4.412774944121712e-12 	101324.9999999896
0.5442942942942938 	299.9999999999778 	3.277197244605889e-12 	101324.9999999896
0.5467967967967964 	299.9999999999352 	4.420174016098947e-12 	101324.9999999896
0.5492992992992988 	299.9999999999336 	3.182377121381991e-12 	101324.9999999894
0.5518018018018012 	299.9999999999341 	4.159212946805284e-12 	101324.9999999894
0.5543043043043039 	300.000000000023 	3.171091325571268e-12 	101324.9999999894
0.5568068068068063 	299.9999999999897 	4.357413751262581e-12 	101324.9999999895
0.5593093093093087 	299.9999999998917 	2.919359555771449e-12 	101324.9999999895
0.5618118118118114 	299.9999999999491 	4.760637529104529e-12 	101324.9999999897
0.5643143143143137 	299.9999999999258 	3.200593687403013e-12 	101324.9999999901
0.5668168168168163 	299.999999999989 	4.101759666923236e-12 	101324.9999999904
0.5693193193193188 	300.0000000000323 	3.576107802977177e-12 	101324.9999999903
0.5718218218218213 	300.0000000000266 	2.917926448555116e-12 	101324.9999999901
0.5743243243243239 	300.0000000000064 	4.048760267217875e-12 	101324.99999999
0.5768268268268262 	300.0000000000003 	2.64060991571395e-12 	101324.99999999
0.5793293293293288 	299.9999999999331 	5.754808476199469e-12 	101324.99999999
0.5818318318318314 	299.9999999999077 	2.814080556578734e-12 	101324.9999999899
0.5843343343343338 	299.9999999999848 	7.569360958498551e-12 	101324.99999999
0.5868368368368363 	299.9999999999769 	3.335716168709657e-12 	101324.9999999899
0.5893393393393387 	299.9999999999399 	7.247784676119813e-12 	101324.99999999
0.5918418418418413 	299.9999999999368 	4.566105511936709e-12 	101324.9999999898
0.5943443443443439 	300.0000000000197 	7.224368089477893e-12 	101324.9999999897
0.5968468468468463 	300.0000000000212 	5.417392859026839e-12 	101324.9999999898
0.5993493493493487 	300.0000000000453 	7.354466639656521e-12 	101324.99999999
0.6018518518518514 	299.9999999999831 	6.18040834348508e-12 	101324.9999999902
0.6043543543543537 	299.9999999999956 	7.934921417576048e-12 	101324.9999999902
0.6068568568568564 	299.9999999999814 	5.91226673847233e-12 	101324.9999999902
0.6093593593593587 	299.9999999999227 	6.786141352866849e-12 	101324.9999999902
0.6118618618618614 	299.9999999999117 	5.871314127463622e-12 	101324.9999999904
0.6143643643643638 	300.0000000000152 	7.014891215065636e-12 	101324.9999999903
0.6168668668668662 	299.9999999999847 	4.879497150781235e-12 	101324.9999999904
0.6193693693693688 	299.9999999999557 	6.407387721880631e-12 	101324.9999999907
0.6218718718718714 	299.9999999999633 	4.224453667982838e-12 	101324.9999999905
0.6243743743743737 	299.9999999999254 	6.578854563707867e-12 	101324.9999999907
0.6268768768768762 	299.9999999999117 	5.229711163000525e-12 	101324.9999999906
0.629379379379379 	299.9999999999475 	6.340314818718415e-12 	101324.9999999906
0.6318818818818812 	299.9999999999732 	5.367009224059243e-12 	101324.9999999907
0.6343843843843838 	300.00000000002 	4.085162761380636e-12 	101324.9999999906
0.6368868868868864 	299.9999999999861 	3.884723141118291e-12 	101324.9999999905
0.6393893893893888 	299.9999999999135 	2.552699450098359e-12 	101324.9999999906
0.6418918918918912 	300.0000000000005 	5.617351241967366e-12 	101324.9999999907
0.6443943943943939 	299.9999999999759 	2.696756975940594e-12 	101324.9999999908
0.6468968968968963 	299.9999999999839 	6.302240130163526e-12 	101324.9999999907
0.6493993993993988 	299.9999999999719 	2.188879722543561e-12 	101324.9999999906
0.6519019019019012 	299.9999999999768 	5.943704922924707e-12 	101324.9999999905
0.6544044044044038 	299.9999999998889 	2.795217695834185e-12 	101324.9999999903
0.6569069069069065 	299.9999999999428 	6.671177420088845e-12 	101324.99999999
0.6594094094094087 	299.9999999999521 	4.5058432396859e-12 	101324.99999999
0.6619119119119113 	299.9999999999472 	7.290536269538881e-12 	101324.9999999899
0.664414414414414 	300.0000000000097 	5.141874652019237e-12 	101324.9999999899
0.6669169169169162 	300.0000000000144 	7.045126048347027e-12 	101324.9999999898
0.6694194194194188 	299.9999999999768 	5.546129464410908e-12 	101324.9999999901
0.6719219219219214 	299.9999999999098 	6.936038699848072e-12 	101324.9999999903
0.674424424424424 	299.999999999969 	5.731198571783594e-12 	101324.9999999903
0.6769269269269262 	299.999999999902 	6.776071869630581e-12 	101324.9999999904
0.679429429429429 	300.0000000000019 	5.91662524643341e-12 	101324.9999999905
0.6819319319319311 	299.999999999976 	6.692031210864198e-12 	101324.9999999908
0.6844344344344341 	299.9999999999986 	5.762621201201573e-12 	101324.9999999909
0.686936936936936 	299.9999999999991 	7.352351304209038e-12 	101324.9999999907
0.6894394394394392 	300.0000000000023 	6.582367323424898e-12 	101324.9999999907
0.6919419419419413 	299.9999999999841 	6.584839004830977e-12 	101324.9999999907
0.694444444444444 	299.999999999921 	6.682305592613794e-12 	101324.9999999904
0.6969469469469463 	299.9999999999081 	6.994508301564415e-12 	101324.9999999903
0.6994494494494489 	299.9999999999079 	8.387369366102206e-12 	101324.9999999901
0.7019519519519515 	299.9999999999791 	7.668181423513675e-12 	101324.9999999901
0.7044544544544538 	299.9999999999426 	9.230461797278185e-12 	101324.9999999902
0.7069569569569564 	299.9999999999978 	7.420277405872836e-12 	101324.9999999903
0.7094594594594589 	299.9999999999618 	1.056959516554175e-11 	101324.9999999905
0.7119619619619615 	299.9999999999022 	8.131434488548723e-12 	101324.9999999905
0.7144644644644638 	299.9999999999531 	1.038522968109713e-11 	101324.9999999905
0.7169669669669665 	299.999999999913 	9.293107944450332e-12 	101324.9999999906
0.7194694694694688 	299.9999999999896 	1.059459845995698e-11 	101324.9999999907
0.7219719719719715 	299.9999999999857 	9.695069476327054e-12 	101324.9999999905
0.7244744744744737 	300.0000000000088 	9.86768865182343e-12 	101324.9999999905
0.7269769769769764 	299.9999999999984 	9.958873346697415e-12 	101324.9999999906
0.7294794794794791 	299.9999999999841 	8.721052620909294e-12 	101324.9999999911
0.7319819819819813 	299.9999999999744 	1.083577693363432e-11 	101324.9999999915
0.7344844844844839 	299.9999999999075 	9.501743050916763e-12 	101324.9999999919
0.7369869869869864 	299.9999999999409 	1.110939934135876e-11 	101324.9999999922
0.739489489489489 	299.9999999999337 	1.076639667487829e-11 	101324.9999999921
0.7419919919919914 	299.9999999999179 	1.064189559849958e-11 	101324.9999999922
0.7444944944944939 	299.9999999999786 	1.114790230648062e-11 	101324.9999999922
0.7469969969969963 	299.9999999999612 	9.288918919897329e-12 	101324.9999999924
0.7494994994994989 	299.9999999999281 	1.153009413549792e-11 	101324.9999999923
0.7520020020020015 	299.9999999999613 	9.041912134811367e-12 	101324.9999999922
0.7545045045045039 	299.9999999999586 	1.264150157240392e-11 	101324.9999999923
0.7570070070070062 	299.9999999999337 	9.685341175814893e-12 	101324.9999999922
0.7595095095095092 	299.9999999999234 	1.145816047002094e-11 	101324.9999999922
0.7620120120120112 	300.0000000000102 	1.043498301134209e-11 	101324.9999999922
0.7645145145145138 	299.9999999999881 	1.032439078563801e-11 	101324.9999999921
0.7670170170170165 	299.9999999999284 	1.053664820735837e-11 	101324.9999999923
0.7695195195195191 	299.9999999999149 	8.939500035376189e-12 	101324.9999999925
0.7720220220220213 	299.9999999999228 	1.11395416441171e-11 	101324.9999999925
0.7745245245245239 	299.9999999999178 	8.621018163169778e-12 	101324.9999999924
0.7770270270270263 	299.999999999969 	1.087042502528821e-11 	101324.9999999923
0.779529529529529 	299.9999999999809 	9.851503510603328e-12 	101324.9999999922
0.7820320320320313 	299.9999999999658 	1.08128145725784e-11 	101324.9999999921
0.784534534534534 	300.000000000003 	1.08862195404713e-11 	101324.9999999922
0.7870370370370364 	300.0000000000001 	1.062717251842814e-11 	101324.9999999922
0.7895395395395389 	299.999999999997 	1.163902770844177e-11 	101324.9999999921
0.7920420420420413 	299.9999999999777 	1.0542412970371e-11 	101324.9999999921
0.794544544544544 	299.9999999999624 	1.234821367439041e-11 	101324.9999999921
0.7970470470470463 	299.9999999999995 	9.737546401544717e-12 	101324.9999999923
0.799549549549549 	299.9999999999837 	1.261321434278312e-11 	101324.9999999926
0.8020520520520515 	299.9999999999858 	9.248621169154366e-12 	101324.9999999926
0.8045545545545539 	299.999999999938 	1.112672587827229e-11 	101324.9999999923
0.8070570570570563 	299.9999999999705 	9.765054615734876e-12 	101324.9999999924
0.8095595595595589 	299.9999999999456 	1.052513653567674e-11 	101324.9999999929
0.8120620620620614 	299.9999999999293 	1.038958882869562e-11 	101324.999999993
0.8145645645645638 	300.0000000000003 	9.689069645054793e-12 	101324.9999999931
0.8170670670670666 	299.9999999999985 	1.00896607307401e-11 	101324.9999999931
0.8195695695695689 	299.9999999999793 	8.423607527018872e-12 	101324.9999999931
0.8220720720720714 	299.9999999999395 	1.131767743351714e-11 	101324.999999993
0.8245745745745739 	299.999999999995 	8.981702018252255e-12 	101324.999999993
0.8270770770770765 	299.9999999999679 	1.112114271536378e-11 	101324.9999999933
0.8295795795795788 	299.9999999999448 	9.717876500812615e-12 	101324.9999999934
0.8320820820820815 	300.0000000000127 	1.049972078769407e-11 	101324.9999999935
0.834584584584584 	300.000000000006 	1.000295586204707e-11 	101324.9999999936
0.8370870870870865 	299.9999999999641 	1.04649353931526e-11 	101324.9999999937
0.8395895895895891 	299.9999999999179 	1.148282722882519e-11 	101324.9999999938
0.8420920920920915 	299.9999999999337 	1.065120259425119e-11 	101324.9999999939
0.844594594594594 	299.9999999999358 	1.119661924251252e-11 	101324.9999999938
0.8470970970970964 	299.999999999956 	1.151649096799546e-11 	101324.9999999938
0.8495995995995991 	299.9999999999876 	1.158217694378725e-11 	101324.9999999939
0.8521021021021015 	299.9999999999774 	1.239995260358716e-11 	101324.9999999939
0.8546046046046039 	299.9999999999733 	1.150059902450057e-11 	101324.9999999938
0.8571071071071066 	300.0000000000022 	1.246359407810224e-11 	101324.9999999937
0.8596096096096089 	299.999999999962 	1.00199377653428e-11 	101324.9999999938
0.8621121121121116 	299.9999999999241 	1.328003048623961e-11 	101324.9999999939
0.8646146146146139 	299.9999999999963 	1.091447924334535e-11 	101324.999999994
0.8671171171171166 	299.9999999999695 	1.2558616171837e-11 	101324.9999999939
0.8696196196196189 	299.9999999999355 	1.13849016616325e-11 	101324.9999999937
0.8721221221221216 	299.9999999999779 	1.174958951532999e-11 	101324.9999999936
0.874624624624624 	300.0000000000013 	1.143784178435791e-11 	101324.9999999939
0.8771271271271264 	299.9999999999984 	1.105511036141773e-11 	101324.9999999942
0.879629629629629 	300.0000000000065 	1.198050911947138e-11 	101324.9999999944
0.8821321321321317 	299.9999999999801 	1.027502930648355e-11 	101324.9999999943
0.8846346346346339 	299.9999999999109 	1.315274141242003e-11 	101324.9999999942
0.8871371371371364 	299.9999999999524 	1.09846344782223e-11 	101324.9999999943
0.8896396396396391 	299.999999999957 	1.318901767096131e-11 	101324.9999999945
0.8921421421421414 	299.9999999999577 	1.24014385474303e-11 	101324.9999999945
0.8946446446446441 	299.9999999999802 	1.381128127174708e-11 	101324.9999999944
0.8971471471471464 	299.9999999999994 	1.420607967183073e-11 	101324.9999999945
0.8996496496496489 	299.9999999999807 	1.497122361140888e-11 	101324.9999999946
0.9021521521521517 	299.9999999999695 	1.611235573290737e-11 	101324.9999999948
0.9046546546546541 	299.9999999999968 	1.465636588831583e-11 	101324.999999995
0.9071571571571564 	299.9999999999499 	1.543599305249701e-11 	101324.9999999953
0.9096596596596589 	299.9999999999426 	1.573271339323653e-11 	101324.9999999956
0.9121621621621616 	300.0000000000066 	1.63522205994285e-11 	101324.9999999955
0.9146646646646639 	299.9999999999736 	1.650935297099278e-11 	101324.9999999954
0.9171671671671666 	299.9999999999437 	1.648388845620159e-11 	101324.9999999952
0.9196696696696689 	300.0000000000065 	1.754583455906936e-11 	101324.9999999951
0.9221721721721714 	299.9999999999955 	1.566142213319415e-11 	101324.9999999954
0.9246746746746741 	299.9999999999297 	1.831088565612709e-11 	101324.9999999956
0.9271771771771765 	299.999999999948 	1.558814685252315e-11 	101324.999999996
0.9296796796796791 	299.9999999999939 	1.746982651747793e-11 	101324.9999999962
0.9321821821821816 	299.9999999999653 	1.580705877177288e-11 	101324.9999999964
0.9346846846846838 	299.999999999942 	1.673287176159677e-11 	101324.9999999965
0.9371871871871866 	300.0000000000135 	1.557346560887311e-11 	101324.9999999965
0.9396896896896891 	300.0000000000139 	1.550484778078382e-11 	101324.9999999965
0.9421921921921914 	300.0000000000099 	1.582506459226136e-11 	101324.9999999962
0.9446946946946939 	299.9999999999639 	1.48754674099084e-11 	101324.9999999959
0.9471971971971965 	299.9999999999189 	1.763069705507733e-11 	101324.9999999959
0.9496996996996991 	299.9999999999624 	1.540587601817698e-11 	101324.9999999957
0.9522022022022016 	299.999999999979 	1.726445154886777e-11 	101324.9999999954
0.9547047047047038 	299.9999999999704 	1.600951602859927e-11 	101324.9999999952
0.9572072072072064 	299.9999999999534 	1.661951689708087e-11 	101324.9999999952
0.9597097097097093 	299.999999999964 	1.601180228149453e-11 	101324.9999999954
0.9622122122122114 	299.9999999999613 	1.607381199111725e-11 	101324.9999999956
0.964714714714714 	299.9999999999535 	1.701586253197402e-11 	101324.9999999955
0.9672172172172167 	299.999999999953 	1.5759153680478e-11 	101324.9999999956
0.969719719719719 	299.9999999999822 	1.639781229688022e-11 	101324.9999999956
0.9722222222222214 	299.9999999999791 	1.580909677729691e-11 	101324.9999999956
0.9747247247247239 	299.9999999999705 	1.629530763614324e-11 	101324.9999999956
0.9772272272272267 	300.0000000000049 	1.661471775954986e-11 	101324.9999999958
0.9797297297297292 	299.9999999999894 	1.634952230263003e-11 	101324.999999996
0.9822322322322313 	299.9999999999926 	1.6757821447729e-11 	101324.9999999962
0.9847347347347344 	299.9999999999862 	1.480379364516158e-11 	101324.9999999962
0.9872372372372363 	299.9999999999385 	1.78080292292206e-11 	101324.9999999961
0.9897397397397389 	299.9999999999591 	1.568467146228751e-11 	101324.9999999962
0.9922422422422417 	299.999999999943 	1.835383759935054e-11 	101324.9999999963
0.9947447447447441 	299.9999999999652 	1.672272669276958e-11 	101324.9999999963
0.9972472472472468 	299.9999999999676 	1.766009582139187e-11 	101324.9999999961
0.999749749749749 	299.9999999999614 	1.682182928846682e-11 	101324.9999999961
1.002252252252252 	299.9999999999712 	1.69949473116472e-11 	101324.9999999964
1.004754754754754 	299.9999999999899 	1.684171282843087e-11 	101324.9999999967
1.007257257257256 	299.9999999999705 	1.602517797621169e-11 	101324.9999999969
1.009759759759759 	299.9999999999591 	1.857435479841912e-11 	101324.9999999971
1.012262262262261 	299.9999999999566 	1.63827369770756e-11 	101324.9999999969
1.014764764764764 	299.9999999999249 	1.817585198219033e-11 	101324.9999999969
1.017267267267267 	299.9999999999155 	1.72914834092679e-11 	101324.9999999968
1.019769769769769 	299.9999999999748 	1.882705289755623e-11 	101324.9999999967
1.022272272272272 	299.9999999999882 	1.820325094863752e-11 	101324.9999999969
1.024774774774774 	299.9999999999852 	1.7646580841901e-11 	101324.9999999969
1.027277277277277 	299.9999999999798 	1.816786039870811e-11 	101324.999999997
1.029779779779779 	300.0000000000134 	1.698995162392784e-11 	101324.999999997
1.032282282282282 	300.0000000000136 	1.840440195341944e-11 	101324.999999997
1.034784784784784 	300.0000000000028 	1.815792565592932e-11 	101324.9999999971
1.037287287287286 	299.9999999999673 	1.87981691614977e-11 	101324.9999999975
1.039789789789789 	299.9999999999702 	1.84282575509191e-11 	101324.9999999977
1.042292292292291 	300.0000000000098 	1.864106763149233e-11 	101324.9999999977
1.044794794794794 	300.0000000000315 	1.887623746559931e-11 	101324.9999999975
1.047297297297296 	300.0000000000541 	1.788751104085895e-11 	101324.9999999975
1.049799799799799 	299.9999999999954 	2.047725762912621e-11 	101324.9999999974
1.052302302302302 	299.9999999999497 	1.856996547202046e-11 	101324.9999999974
1.054804804804804 	299.9999999999267 	2.042148863126559e-11 	101324.9999999974
1.057307307307306 	299.9999999999137 	1.873594855786445e-11 	101324.9999999974
1.059809809809809 	299.9999999999598 	1.943616007245936e-11 	101324.9999999976
1.062312312312312 	299.9999999999553 	1.829678977366626e-11 	101324.9999999976
1.064814814814814 	299.9999999999478 	1.851437688111154e-11 	101324.9999999975
1.067317317317317 	299.9999999999183 	1.81133054756969e-11 	101324.9999999976
1.069819819819819 	299.9999999999242 	1.833760739715973e-11 	101324.9999999978
1.072322322322321 	299.9999999999976 	2.073638345346822e-11 	101324.999999998
1.074824824824824 	300.0000000000189 	1.89733314693284e-11 	101324.9999999982
1.077327327327327 	300.0000000000402 	2.11338124814703e-11 	101324.9999999984
1.079829829829829 	300.000000000055 	1.992666775943162e-11 	101324.9999999984
1.082332332332332 	300.0000000000151 	2.105726553390037e-11 	101324.9999999983
1.084834834834834 	299.99999999998 	2.063502730505536e-11 	101324.999999998
1.087337337337337 	299.9999999999373 	2.048516863731775e-11 	101324.9999999978
1.089839839839839 	299.9999999999224 	2.21393559378239e-11 	101324.9999999978
1.092342342342342 	299.9999999999644 	2.017504263716854e-11 	101324.9999999977
1.094844844844844 	299.9999999999633 	2.103196246692185e-11 	101324.9999999977
1.097347347347347 	299.9999999999311 	1.96190888593785e-11 	101324.9999999976
1.099849849849849 	299.9999999999185 	2.315601605192225e-11 	101324.9999999976
1.102352352352352 	299.9999999999502 	2.095077614074552e-11 	101324.9999999976
1.104854854854854 	299.9999999999742 	2.356213700561283e-11 	101324.9999999977
1.107357357357357 	299.9999999999559 	2.161343520064427e-11 	101324.9999999978
1.109859859859859 	299.9999999999492 	2.260368218831199e-11 	101324.9999999978
1.112362362362362 	300.0000000000213 	2.077439036264946e-11 	101324.9999999978
1.114864864864865 	300.0000000000215 	2.108351914301406e-11 	101324.9999999978
1.117367367367367 	299.9999999999656 	2.25777530889767e-11 	101324.9999999979
1.119869869869869 	299.9999999999231 	2.124344888779317e-11 	101324.9999999981
1.122372372372372 	299.9999999999634 	2.304005257924638e-11 	101324.9999999981
1.124874874874874 	299.9999999999564 	2.171978999869153e-11 	101324.9999999981
1.127377377377377 	299.9999999999619 	2.298714131557664e-11 	101324.9999999981
1.129879879879879 	300.0000000000243 	2.203256491587668e-11 	101324.9999999981
1.132382382382382 	300.0000000000454 	2.227239396763408e-11 	101324.9999999983
1.134884884884884 	300.0000000000117 	2.112187659930862e-11 	101324.9999999984
1.137387387387387 	300.0000000000203 	2.056111689636957e-11 	101324.9999999984
1.139889889889889 	299.9999999999618 	2.182259775947037e-11 	101324.9999999984
1.142392392392392 	299.9999999999492 	2.038099672562109e-11 	101324.9999999982
1.144894894894894 	300.0000000000206 	2.221175524879673e-11 	101324.9999999981
1.147397397397397 	299.999999999997 	2.152611019193567e-11 	101324.9999999982
1.149899899899899 	299.9999999999292 	2.367125674476242e-11 	101324.9999999983
1.152402402402402 	299.9999999999185 	2.352220118242334e-11 	101324.9999999983
1.154904904904904 	299.9999999999609 	2.449289118268932e-11 	101324.9999999985
1.157407407407407 	299.9999999999617 	2.346340126920126e-11 	101324.9999999985
1.159909909909909 	299.9999999999296 	2.328548242314311e-11 	101324.9999999986
1.162412412412412 	299.9999999999213 	2.472721970206078e-11 	101324.9999999987
1.164914914914914 	299.9999999999494 	2.30043585163078e-11 	101324.9999999987
1.167417417417417 	299.99999999996 	2.4895408636437e-11 	101324.9999999987
1.169919919919919 	300.0000000000203 	2.349488407469097e-11 	101324.9999999988
1.172422422422422 	300.0000000000517 	2.494440268679085e-11 	101324.999999999
1.174924924924925 	299.9999999999917 	2.401210654537148e-11 	101324.9999999992
1.177427427427427 	299.9999999999545 	2.492597232692647e-11 	101324.999999999
1.179929929929929 	300.0000000000114 	2.595715971212241e-11 	101324.9999999989
1.182432432432432 	300.0000000000446 	2.402586700052589e-11 	101324.999999999
1.184934934934934 	300.0000000000022 	2.547604810887896e-11 	101324.9999999993
1.187437437437437 	299.9999999999656 	2.415834310506422e-11 	101324.9999999994
1.189939939939939 	299.9999999999548 	2.509678570446887e-11 	101324.9999999992
1.192442442442442 	299.9999999999218 	2.385888944204041e-11 	101324.9999999994
1.194944944944944 	299.9999999999264 	2.539489153423301e-11 	101324.9999999993
1.197447447447447 	299.9999999999918 	2.510200570129874e-11 	101324.9999999991
1.199949949949949 	300.0000000000139 	2.586395745144867e-11 	101324.999999999
1.202452452452452 	299.9999999999511 	2.713884136228324e-11 	101324.9999999989
1.204954954954955 	299.999999999942 	2.520166818718138e-11 	101324.9999999989
1.207457457457457 	299.9999999999744 	2.636199692021293e-11 	101324.9999999991
1.20995995995996 	299.9999999999711 	2.50636223402378e-11 	101324.9999999992
1.212462462462462 	299.9999999999898 	2.642419439861681e-11 	101324.9999999992
1.214964964964964 	299.9999999999887 	2.548814694249445e-11 	101324.9999999991
1.217467467467467 	299.9999999999778 	2.683129096843608e-11 	101324.9999999993
1.219969969969969 	299.9999999999634 	2.591642913462536e-11 	101324.9999999991
1.222472472472472 	300.0000000000211 	2.683166381470543e-11 	101324.999999999
1.224974974974975 	300.0000000000514 	2.826490180426416e-11 	101324.999999999
1.227477477477477 	299.9999999999948 	2.696126753530773e-11 	101324.9999999988
1.229979979979979 	299.9999999999804 	2.870183938856043e-11 	101324.9999999987
1.232482482482482 	299.9999999999493 	2.677937279132085e-11 	101324.9999999987
1.234984984984984 	299.9999999999478 	2.779351502885747e-11 	101324.9999999988
1.237487487487487 	299.9999999999727 	2.573963681293119e-11 	101324.999999999
1.239989989989989 	299.9999999999742 	2.616017925024709e-11 	101324.9999999992
1.242492492492492 	300.0000000000111 	2.640646219602633e-11 	101324.9999999994
1.244994994994994 	299.9999999999764 	2.469191614237032e-11 	101324.9999999994
1.247497497497497 	299.9999999999897 	2.606835855833802e-11 	101324.9999999993
1.249999999999999 	300.0000000003031 	2.49963519761312e-11 	101324.9999999994
