-1.25 	338.5256621387885 	0.09193350220148089 	101363.5256621388
-1.247497497497497 	300.96684237416 	0.09504693682692883 	101363.9427191023
-1.244994994994995 	300.0440334803916 	0.0972273428241985 	101364.3593563626
-1.242492492492492 	300.0337271877455 	0.09712621146428041 	101364.7796388277
-1.23998998998999 	300.0339877935643 	0.09843767974439029 	101365.1856162077
-1.237487487487487 	300.0343257271503 	0.09941704909596639 	101365.5854528862
-1.234984984984985 	300.0346575784469 	0.1003706440026424 	101365.9778454885
-1.232482482482482 	300.0349830132253 	0.1013158902698792 	101366.3626845465
-1.22997997997998 	300.0353020087095 	0.1022399728837123 	101366.7399101081
-1.227477477477477 	300.0356145053019 	0.1031460110027541 	101367.1094514993
-1.224974974974975 	300.0359204469572 	0.1040326504614342 	101367.4712422158
-1.222472472472472 	300.0362197765713 	0.1049002518083271 	101367.8252148694
-1.21996996996997 	300.0365124370242 	0.1057484293066452 	101368.1713017912
-1.217467467467467 	300.036798377409 	0.1065771393814403 	101368.5094425779
-1.214964964964965 	300.037077548976 	0.1073862009952124 	101368.839579717
-1.212462462462462 	300.0373498983128 	0.1081754819016819 	101369.16164986
-1.20995995995996 	300.0376153698684 	0.1089448165690388 	101369.4755873868
-1.207457457457457 	300.0378739140094 	0.1096940654637714 	101369.781333489
-1.204954954954955 	300.0381254872259 	0.1104231005795538 	101370.0788364942
-1.202452452452452 	300.0383700467828 	0.1111318035129808 	101370.3680461076
-1.19994994994995 	300.0386075488531 	0.1118200484964822 	101370.6489103542
-1.197447447447447 	300.0388379486291 	0.1124877059694782 	101370.9213760572
-1.194944944944945 	300.03906120248 	0.1131346496317965 	101371.1853916664
-1.192442442442442 	300.0392772683256 	0.1137607608254334 	101371.4409074878
-1.18993993993994 	300.0394861067026 	0.1143659270209822 	101371.6878766367
-1.187437437437437 	300.0396876791797 	0.1149500366260903 	101371.9262535447
-1.184934934934935 	300.0398819488392 	0.1155129817139272 	101372.1559948029
-1.182432432432432 	300.0400688802212 	0.1160546613362455 	101372.3770582728
-1.17992992992993 	300.040248439168 	0.1165749790625844 	101372.5894032485
-1.177427427427427 	300.0404205930269 	0.1170738387901852 	101372.7929911804
-1.174924924924925 	300.0405853093675 	0.1175511475277062 	101372.9877843924
-1.172422422422422 	300.040742557991 	0.1180068197845248 	101373.1737475964
-1.16991991991992 	300.0408923106366 	0.118440773528444 	101373.3508457414
-1.167417417417417 	300.041034541765 	0.1188529286811019 	101373.5190469262
-1.164914914914915 	300.0411692240465 	0.1192432085473127 	101373.6783202107
-1.162412412412412 	300.0412963294301 	0.1196115428285792 	101373.8286359741
-1.15990990990991 	300.041415834062 	0.1199578651024306 	101373.9699671005
-1.157407407407407 	300.0415277188 	0.1202821100975293 	101374.1022867677
-1.154904904904904 	300.0416319682819 	0.1205842198562628 	101374.2255721074
-1.152402402402403 	300.0417285621912 	0.1208641400109219 	101374.3397992542
-1.1498998998999 	300.0418174785562 	0.1211218181188948 	101374.4449471982
-1.147397397397397 	300.0418986969204 	0.1213572057138252 	101374.5409971414
-1.144894894894895 	300.0419722005756 	0.1215702606476007 	101374.6279303457
-1.142392392392392 	300.0420379811683 	0.1217609470226869 	101374.705733035
-1.13988988988989 	300.0420960299125 	0.1219292264153171 	101374.7743888037
-1.137387387387387 	300.0421463397478 	0.1220750672342473 	101374.8338852079
-1.134884884884885 	300.0421889020354 	0.1221984439334853 	101374.8842117899
-1.132382382382382 	300.0422237048055 	0.122299331656639 	101374.9253569502
-1.12987987987988 	300.0422507415207 	0.1223777145343328 	101374.9573165752
-1.127377377377377 	300.0422700035053 	0.1224335780187444 	101374.9800828847
-1.124874874874875 	300.042281486579 	0.1224669134856563 	101374.9936521486
-1.122372372372372 	300.0422851909118 	0.1224777156257369 	101374.9980247018
-1.11986986986987 	300.0422811109943 	0.1224659766348802 	101374.9931941961
-1.117367367367367 	300.0422692493503 	0.1224317014051592 	101374.9791638008
-1.114864864864865 	300.0422496091304 	0.1223748939324482 	101374.9559357556
-1.112362362362362 	300.0422221920679 	0.1222955620015215 	101374.9235113728
-1.10985985985986 	300.0421870081304 	0.1221937278329854 	101374.8819026507
-1.107357357357357 	300.042144059906 	0.1220694045044643 	101374.8311122092
-1.104854854854855 	300.0420933560895 	0.1219226157098774 	101374.7711498942
-1.102352352352353 	300.0420349111349 	0.1217533953532103 	101374.7020329787
-1.09984984984985 	300.0419687276291 	0.1215617642007705 	101374.6237649343
-1.097347347347347 	300.0418948214711 	0.1213477606398924 	101374.53636417
-1.094844844844845 	300.0418132093204 	0.1211114257022078 	101374.439849603
-1.092342342342342 	300.0417238957425 	0.1208527899213539 	101374.3342272979
-1.08983983983984 	300.0416269043028 	0.1205719111335324 	101374.2195263736
-1.087337337337337 	300.0415222544478 	0.1202688416476222 	101374.095769011
-1.084834834834835 	300.0414099569674 	0.1199436255104751 	101373.9629660116
-1.082332332332332 	300.0412900443634 	0.1195963395878188 	101373.8211563479
-1.07982982982983 	300.041162534431 	0.119227044035715 	101373.6703641888
-1.077327327327327 	300.0410274377181 	0.1188357912698406 	101373.5106028681
-1.074824824824825 	300.040884797516 	0.118422674763552 	101373.3419196568
-1.072322322322323 	300.0407346400959 	0.1179877637545314 	101373.1643421022
-1.06981981981982 	300.0405769750936 	0.1175311162671736 	101372.9778846879
-1.067317317317317 	300.0404118437559 	0.1170528433887017 	101372.7826030333
-1.064814814814815 	300.0402392747831 	0.1165530300772344 	101372.5785321677
-1.062312312312312 	300.0400592854001 	0.1160317372747695 	101372.365685182
-1.05980980980981 	300.0398719338574 	0.1154890907953961 	101372.1441235562
-1.057307307307307 	300.0396772600116 	0.1149251990346759 	101371.9138961951
-1.054804804804805 	300.0394752637429 	0.1143401219397747 	101371.6750131798
-1.052302302302302 	300.0392659877791 	0.1137339889195605 	101371.4275331146
-1.0497997997998 	300.0390494935987 	0.1131069437611094 	101371.1715257363
-1.047297297297297 	300.0388258033639 	0.1124590537978183 	101370.9070056205
-1.044794794794795 	300.0385949609752 	0.1117904302412318 	101370.6340150141
-1.042292292292292 	300.0383570399497 	0.1111012525484533 	101370.3526418642
-1.03978978978979 	300.038112063173 	0.1103916260066924 	101370.0629248637
-1.037287287287287 	300.0378600357178 	0.1096616267713534 	101369.7648828714
-1.034784784784785 	300.0376010240216 	0.1089114335770309 	101369.4585981256
-1.032282282282283 	300.0373351061477 	0.1081412305040193 	101369.1441551436
-1.02977977977978 	300.0370623084298 	0.1073510925691092 	101368.8215725467
-1.027277277277277 	300.0367826668329 	0.1065411219619082 	101368.4908834661
-1.024774774774775 	300.0364962793225 	0.1057115579295623 	101368.1522010743
-1.022272272272272 	300.0362032183057 	0.1048625948807626 	101367.8056162103
-1.01976976976977 	300.0359034650668 	0.1039942607069562 	101367.4511185012
-1.017267267267267 	300.0355970359749 	0.1031066738026561 	101367.0887397115
-1.014764764764765 	300.035284074044 	0.1022001831679214 	101366.718654671
-1.012262262262262 	300.0349646677128 	0.1012749867672279 	101366.3409659606
-1.00975975975976 	300.0346387442257 	0.1003309786534971 	101365.9555835134
-1.007257257257257 	300.0343063417976 	0.09936831963541091 	101365.5625492882
-1.004754754754755 	300.0339677220458 	0.09838758987668103 	101365.1621671502
-1.002252252252252 	300.0336229674365 	0.09738895450824761 	101364.7545265568
-0.9997497497497498 	300.0332718648688 	0.09637202060426525 	101364.3393713737
-0.9972472472472473 	300.0329144734474 	0.09533701809554493 	101363.9167750723
-0.9947447447447449 	300.0325512471038 	0.09428494098585416 	101363.4872789029
-0.9922422422422421 	300.0321822578197 	0.0932159226895375 	101363.0509653335
-0.9897397397397399 	300.0318070406648 	0.09212904838528588 	101362.607278563
-0.9872372372372376 	300.0314256290943 	0.09102454325605289 	101362.1562592123
-0.9847347347347346 	300.031038807912 	0.08990413816097333 	101361.6988448401
-0.9822322322322323 	300.0306467712222 	0.08876818355726682 	101361.2352718756
-0.9797297297297296 	300.0302486473767 	0.08761482776835938 	101360.7645048094
-0.9772272272272275 	300.0298441785944 	0.08644369573438863 	101360.2862278538
-0.9747247247247248 	300.0294346305333 	0.08525764807383567 	101359.8019345503
-0.9722222222222224 	300.0290208176751 	0.08405837406772752 	101359.3125984677
-0.9697197197197196 	300.0286014460968 	0.08284298648871508 	101358.8167032849
-0.9672172172172175 	300.0281751615589 	0.08160871961147843 	101358.3126492805
-0.9647147147147147 	300.0277433172797 	0.08035883939792515 	101357.8020221815
-0.9622122122122124 	300.0273083880569 	0.07909878997160076 	101357.2877314723
-0.9597097097097099 	300.0268698660879 	0.0778271278508757 	101356.7691760043
-0.9572072072072073 	300.0264244461146 	0.07653639671074214 	101356.2424666925
-0.9547047047047047 	300.0259711911398 	0.07522493421975225 	101355.7065171497
-0.9522022022022023 	300.0255139403708 	0.07390188751982185 	101355.165868927
-0.9496996996996998 	300.025056326583 	0.07257537738427114 	101354.624795331
-0.9471971971971973 	300.0245959617956 	0.07123934441387497 	101354.0804465223
-0.9446946946946947 	300.0241268202265 	0.06987970856532771 	101353.5256921156
-0.9421921921921923 	300.0236477120774 	0.06849431790841935 	101352.9591457103
-0.93968968968969 	300.023165294863 	0.06709948019840178 	101352.3887072284
-0.9371871871871872 	300.0226863342434 	0.06571111536392152 	101351.8223888285
-0.9346846846846848 	300.0222084023998 	0.06432273947668329 	101351.2573095599
-0.9321821821821823 	300.0217214513599 	0.06290984368769331 	101350.6815667399
-0.9296796796796799 	300.0212196535348 	0.06145878930810948 	101350.0882520538
-0.9271771771771771 	300.0207096609802 	0.05998653256679796 	101349.4852251002
-0.9246746746746748 	300.0202046277025 	0.05852551861339653 	101348.8880439191
-0.9221721721721724 	300.0197097103537 	0.05708796259095515 	101348.3028172907
-0.9196696696696698 	300.0192151137924 	0.05564897148662017 	101347.7179798989
-0.9171671671671672 	300.0187050433659 	0.05416914639163094 	101347.1148742038
-0.9146646646646649 	300.0181739742002 	0.05263526555938883 	101346.4869795417
-0.9121621621621623 	300.017633658973 	0.05107758236230573 	101345.8481885638
-0.9096596596596597 	300.0171032631363 	0.04954472555295972 	101345.2211397982
-0.9071571571571573 	300.0165916491663 	0.04805881452471661 	101344.6162798913
-0.9046546546546547 	300.0160883800419 	0.04659258607980928 	101344.0212437623
-0.9021521521521524 	300.0155716808849 	0.04508984757301809 	101343.4102814434
-0.8996496496496498 	300.015026493887 	0.04351202953611537 	101342.7656052228
-0.8971471471471473 	300.0144575240848 	0.04187187344375464 	101342.0928017946
-0.894644644644645 	300.0138866677459 	0.04022674161314956 	101341.4177766584
-0.892142142142142 	300.0133369879683 	0.03863700886143107 	101340.7678008571
-0.8896396396396397 	300.0128157944968 	0.03712175078629308 	101340.151509817
-0.8871371371371374 	300.0123091357924 	0.03564390115822462 	101339.5524011589
-0.8846346346346349 	300.0117907438106 	0.03413360735439414 	101338.9394182519
-0.8821321321321324 	300.0112386643763 	0.03253244667352363 	101338.286614169
-0.8796296296296297 	300.010648896704 	0.03082995729504887 	101337.5892725239
-0.8771271271271271 	300.0100381378908 	0.02907111581625775 	101336.8671439457
-0.8746246246246248 	300.0094346274964 	0.0273320442105605 	101336.1536156145
-0.8721221221221224 	300.0088630782909 	0.0256796938545812 	101335.4778949388
-0.8696196196196196 	300.0083323752338 	0.02413836191644828 	101334.8504711682
-0.8671171171171175 	300.0078317784394 	0.02267882816159152 	101334.2586331402
-0.8646146146146148 	300.0073361029411 	0.02123191375505042 	101333.6725985289
-0.8621121121121121 	300.0068161293125 	0.01971689045914375 	101333.0578234187
-0.8596096096096097 	300.0062493952057 	0.01807150693563895 	101332.3877596409
-0.857107107107107 	300.0056277301514 	0.01627315643044566 	101331.6527594223
-0.8546046046046049 	300.0049596969756 	0.01434580937366305 	101330.8629573953
-0.8521021021021022 	300.0042678437994 	0.01235244473281018 	101330.0450185672
-0.8495995995995997 	300.0035821801615 	0.01037708355719872 	101329.2344232692
-0.8470970970970974 	300.0029324528402 	0.008503744311868955 	101328.4663356814
-0.8445945945945946 	300.0023423175777 	0.006800123972400226 	101327.7687156434
-0.8420920920920922 	300.001826793321 	0.005309795539602892 	101327.1593115565
-0.8395895895895897 	300.0013922351728 	0.004051666146912609 	101326.6456299255
-0.8370870870870872 	300.0010377326248 	0.003023761750243789 	101326.2265890353
-0.8345845845845846 	300.0007571430497 	0.002208944100405435 	101325.8949234987
-0.8320820820820823 	300.0005411886352 	0.001580886150262989 	101325.6396631596
-0.8295795795795798 	300.00037926206 	0.001109263523535916 	101325.4482672994
-0.8270770770770772 	300.0002607788734 	0.0007636737920919034 	101325.3082231463
-0.8245745745745746 	300.00017605548 	0.0005162036514558163 	101325.2080836053
-0.8220720720720721 	300.000116775862 	0.0003428118039909967 	101325.1380183987
-0.8195695695695699 	300.0000761458384 	0.0002238075483791118 	101325.0899965249
-0.817067067067067 	300.0000488397946 	0.0001437219586087218 	101325.0577230813
-0.8145645645645651 	300.0000308293979 	9.083009459077988e-05 	101325.036436546
-0.8120620620620621 	300.0000191617283 	5.652081316773369e-05 	101325.0226465777
-0.8095595595595597 	300.0000117322659 	3.464646624916627e-05 	101325.0138658188
-0.8070570570570572 	300.0000070793088 	2.092996939604109e-05 	101325.00836668
-0.8045545545545546 	300.0000042115327 	1.246559502649504e-05 	101325.0049773822
-0.8020520520520523 	300.0000024711538 	7.322460258323947e-06 	101325.0029204773
-0.7995495495495494 	300.0000014306148 	4.243814665127169e-06 	101325.001690701
-0.7970470470470474 	300.000000817412 	2.427485447527052e-06 	101325.0009660199
-0.7945445445445446 	300.000000461116 	1.370874135924695e-06 	101325.0005449406
-0.7920420420420423 	300.0000002569029 	7.645519329922282e-07 	101325.0003035893
-0.7895395395395397 	300.0000001413936 	4.212255934505958e-07 	101325.0001670786
-0.7870370370370371 	300.0000000768943 	2.293126938856833e-07 	101325.0000908587
-0.7845345345345348 	300.0000000413104 	1.233899907443743e-07 	101325.0000488351
-0.7820320320320323 	300.0000000219414 	6.563567737186197e-08 	101325.0000259487
-0.7795295295295296 	300.0000000114877 	3.452898255260954e-08 	101325.0000136333
-0.7770270270270272 	300.0000000059341 	1.796219990202036e-08 	101325.0000070838
-0.7745245245245247 	300.0000000030169 	9.248025766518895e-09 	101325.0000036401
-0.7720220220220222 	300.0000000015268 	4.707932088278171e-09 	101325.0000018498
-0.7695195195195199 	300.0000000007525 	2.375306665500147e-09 	101325.0000009289
-0.767017017017017 	300.0000000003803 	1.182070984625184e-09 	101325.0000004604
-0.7645145145145147 	300.000000000207 	5.861569398913641e-10 	101325.0000002247
-0.7620120120120122 	300.0000000001127 	2.829216246431342e-10 	101325.0000001073
-0.7595095095095097 	300.0000000000015 	1.397676558626037e-10 	101325.0000000496
-0.7570070070070072 	299.9999999999803 	6.242292952284245e-11 	101325.0000000215
-0.7545045045045048 	300.0000000000052 	3.223703852232066e-11 	101325.0000000081
-0.7520020020020022 	299.9999999999776 	1.149457640447299e-11 	101325.0000000018
-0.7494994994994997 	299.9999999999732 	6.716902924492607e-12 	101324.9999999986
-0.7469969969969972 	300.0000000000006 	4.274106030963774e-12 	101324.9999999972
-0.7444944944944945 	299.9999999999904 	2.390449304168833e-12 	101324.9999999966
-0.7419919919919924 	299.9999999999907 	2.351474038178051e-12 	101324.9999999963
-0.7394894894894897 	299.9999999999692 	9.851524239921387e-13 	101324.999999996
-0.7369869869869872 	299.9999999999903 	1.754136480157284e-12 	101324.9999999958
-0.7344844844844846 	299.9999999999743 	2.215181312602881e-12 	101324.9999999955
-0.7319819819819822 	300.0000000000047 	1.270657340234341e-12 	101324.9999999953
-0.7294794794794797 	300.0000000000008 	2.301314542376998e-12 	101324.9999999954
-0.7269769769769773 	300.0000000000078 	8.931797799962182e-13 	101324.9999999952
-0.7244744744744747 	300.0000000000138 	1.0701820772553e-12 	101324.999999995
-0.721971971971972 	299.9999999999689 	8.9086988058404e-13 	101324.9999999949
-0.7194694694694695 	299.9999999999866 	1.077602088367531e-12 	101324.999999995
-0.7169669669669674 	299.999999999953 	1.212194108267275e-12 	101324.999999995
-0.7144644644644647 	299.9999999999802 	1.102889857869032e-12 	101324.9999999951
-0.711961961961962 	300.0000000000049 	1.015194290526981e-12 	101324.9999999952
-0.7094594594594597 	300.0000000000167 	7.452684104044939e-13 	101324.9999999952
-0.7069569569569573 	300.0000000000197 	8.711624537249099e-13 	101324.9999999953
-0.7044544544544545 	300.0000000000202 	9.606978498776699e-13 	101324.9999999955
-0.7019519519519523 	300.0000000000086 	4.254202002702812e-13 	101324.9999999957
-0.6994494494494495 	299.9999999999525 	5.530021561240644e-13 	101324.999999996
-0.6969469469469471 	299.9999999999627 	5.521698196022328e-13 	101324.9999999961
-0.6944444444444446 	299.9999999999766 	3.142489620068435e-13 	101324.999999996
-0.6919419419419421 	300.0000000000227 	7.204395522201431e-13 	101324.9999999961
-0.6894394394394396 	299.9999999999973 	4.36639704096896e-13 	101324.9999999959
-0.6869369369369374 	300.0000000000064 	9.191499697031649e-13 	101324.9999999961
-0.6844344344344344 	300.0000000000135 	7.741014023226602e-13 	101324.999999996
-0.6819319319319321 	299.9999999999698 	1.167348424514474e-12 	101324.9999999959
-0.6794294294294296 	299.9999999999583 	6.152356706266411e-13 	101324.9999999956
-0.6769269269269272 	299.9999999999376 	1.384935230137494e-12 	101324.9999999957
-0.6744244244244245 	299.9999999999758 	1.683549572919174e-12 	101324.9999999958
-0.6719219219219222 	299.9999999999678 	1.193916841048731e-12 	101324.9999999956
-0.6694194194194195 	299.9999999999936 	1.874482813737152e-12 	101324.9999999955
-0.6669169169169172 	300.0000000000079 	1.543232095781682e-12 	101324.9999999954
-0.6644144144144146 	299.9999999999744 	2.312335387189235e-12 	101324.9999999954
-0.661911911911912 	299.9999999999789 	2.255724749173323e-12 	101324.9999999954
-0.6594094094094097 	299.9999999999857 	3.553023392831502e-12 	101324.9999999954
-0.656906906906907 	299.9999999999583 	3.231042933986506e-12 	101324.9999999953
-0.6544044044044046 	299.999999999964 	4.344817723920561e-12 	101324.9999999954
-0.6519019019019021 	299.9999999999893 	2.370022942335768e-12 	101324.9999999956
-0.6493993993993996 	300.0000000000176 	3.656534285607535e-12 	101324.9999999955
-0.6468968968968971 	300.0000000000247 	1.925508602377711e-12 	101324.9999999954
-0.6443943943943946 	299.9999999999959 	2.739775132887533e-12 	101324.9999999955
-0.6418918918918921 	299.9999999999974 	1.05497297970099e-12 	101324.9999999953
-0.6393893893893897 	300.000000000002 	2.516056926344391e-12 	101324.9999999953
-0.6368868868868871 	299.9999999999836 	1.913005665101831e-12 	101324.9999999953
-0.6343843843843846 	299.9999999999958 	2.184976556986558e-12 	101324.9999999953
-0.6318818818818821 	299.9999999999677 	1.502509447177599e-12 	101324.9999999953
-0.6293793793793795 	300.0000000000026 	1.180160474837837e-12 	101324.9999999952
-0.6268768768768773 	300.0000000000144 	1.404172057829467e-12 	101324.9999999952
-0.6243743743743745 	299.9999999999847 	6.158917600044339e-13 	101324.9999999952
-0.6218718718718721 	300.0000000000034 	1.26765155825999e-12 	101324.9999999952
-0.6193693693693696 	299.9999999999578 	1.417847978711219e-12 	101324.9999999953
-0.6168668668668671 	299.9999999999883 	1.050849262628099e-12 	101324.9999999953
-0.6143643643643645 	300.0000000000081 	1.057031695604483e-12 	101324.9999999952
-0.6118618618618621 	299.9999999999877 	9.237924337296258e-13 	101324.9999999952
-0.6093593593593596 	299.9999999999885 	3.180439424695076e-13 	101324.9999999951
-0.6068568568568571 	299.9999999999894 	6.977069643736634e-13 	101324.9999999953
-0.6043543543543546 	299.9999999999679 	5.732105430337253e-13 	101324.9999999954
-0.6018518518518521 	299.9999999999771 	1.511289912032013e-12 	101324.9999999953
-0.5993493493493496 	299.999999999961 	1.281098603102127e-12 	101324.9999999952
-0.5968468468468471 	299.9999999999682 	2.811919049637504e-12 	101324.9999999952
-0.5943443443443446 	299.9999999999958 	1.772363258617186e-12 	101324.9999999951
-0.591841841841842 	299.9999999999702 	3.41449016538724e-12 	101324.999999995
-0.5893393393393397 	299.9999999999644 	1.956163359920825e-12 	101324.9999999952
-0.5868368368368371 	299.9999999999968 	4.520486818803729e-12 	101324.9999999954
-0.5843343343343346 	300.0000000000067 	1.507319367348163e-12 	101324.9999999953
-0.5818318318318321 	300.000000000022 	2.876737785874501e-12 	101324.9999999954
-0.5793293293293297 	299.9999999999907 	1.769878001046117e-12 	101324.9999999955
-0.5768268268268271 	299.9999999999994 	2.234269470449156e-12 	101324.9999999956
-0.5743243243243245 	300.0000000000155 	1.084679467741809e-12 	101324.9999999956
-0.5718218218218221 	300.0000000000148 	7.107021730171661e-13 	101324.9999999955
-0.5693193193193196 	300.0000000000291 	3.519270406832971e-13 	101324.9999999951
-0.5668168168168171 	299.9999999999868 	4.655324642758704e-13 	101324.9999999948
-0.5643143143143147 	299.9999999999619 	1.010839251438521e-12 	101324.9999999948
-0.5618118118118121 	300.0000000000067 	6.494837560229869e-13 	101324.9999999948
-0.5593093093093094 	300.0000000000203 	9.379438092376577e-13 	101324.999999995
-0.5568068068068072 	300.0000000000119 	8.983334099743788e-13 	101324.9999999951
-0.5543043043043046 	300.0000000000135 	9.51910912122217e-13 	101324.9999999952
-0.551801801801802 	299.9999999999691 	5.20088187894755e-13 	101324.9999999954
-0.5492992992992995 	299.9999999999981 	1.123564836607112e-12 	101324.9999999956
-0.5467967967967969 	300.0000000000088 	4.910078155116732e-13 	101324.9999999958
-0.5442942942942947 	300.0000000000027 	6.949736486811406e-13 	101324.9999999959
-0.5417917917917919 	299.9999999999696 	4.9164025618751e-13 	101324.999999996
-0.5392892892892895 	299.9999999999541 	1.067921175516366e-12 	101324.999999996
-0.536786786786787 	299.9999999999719 	9.034034832266899e-13 	101324.9999999958
-0.5342842842842846 	299.9999999999773 	1.194864421847969e-12 	101324.9999999956
-0.531781781781782 	299.9999999999614 	1.523540247686901e-12 	101324.9999999955
-0.5292792792792794 	299.9999999999574 	2.208302761009933e-12 	101324.9999999954
-0.526776776776777 	299.9999999999413 	2.729135395450044e-12 	101324.9999999955
-0.5242742742742745 	299.9999999999832 	3.396939420645184e-12 	101324.9999999955
-0.521771771771772 	300.0000000000099 	4.102807980023253e-12 	101324.9999999955
-0.5192692692692695 	299.9999999999715 	4.138587076695578e-12 	101324.9999999956
-0.516766766766767 	300.0000000000029 	4.485994774713209e-12 	101324.9999999956
-0.5142642642642645 	299.9999999999835 	3.532042340592884e-12 	101324.9999999958
-0.511761761761762 	299.9999999999684 	3.791205313775662e-12 	101324.9999999957
-0.5092592592592596 	299.9999999999783 	2.834067066507144e-12 	101324.9999999955
-0.506756756756757 	299.9999999999596 	2.696390827939657e-12 	101324.9999999952
-0.5042542542542544 	299.999999999996 	2.183986480719473e-12 	101324.999999995
-0.5017517517517521 	300.0000000000193 	1.629583923719891e-12 	101324.9999999949
-0.4992492492492494 	300.0000000000207 	1.282203882759139e-12 	101324.9999999948
-0.496746746746747 	299.9999999999936 	1.064446311435152e-12 	101324.9999999948
-0.4942442442442445 	299.9999999999636 	1.487474802520375e-12 	101324.9999999949
-0.4917417417417421 	299.9999999999621 	4.149996953624257e-13 	101324.9999999951
-0.4892392392392395 	299.9999999999746 	1.489670373371581e-12 	101324.9999999953
-0.486736736736737 	299.999999999973 	6.421074741767932e-13 	101324.9999999952
-0.4842342342342345 	299.9999999999467 	1.614576065157819e-12 	101324.9999999952
-0.481731731731732 	300.0000000000223 	1.50796612208244e-12 	101324.9999999951
-0.4792292292292296 	300.0000000000147 	1.959536078083418e-12 	101324.999999995
-0.4767267267267268 	299.9999999999728 	2.339977754154527e-12 	101324.9999999949
-0.4742242242242246 	300.0000000000005 	2.609662163892027e-12 	101324.9999999952
-0.471721721721722 	299.9999999999708 	2.428765389578505e-12 	101324.9999999948
-0.4692192192192195 	299.9999999999812 	1.783223655480003e-12 	101324.9999999947
-0.4667167167167169 	299.9999999999367 	1.504283826419699e-12 	101324.9999999946
-0.4642142142142145 	299.9999999999961 	1.642722712689399e-12 	101324.9999999947
-0.461711711711712 	300.0000000000123 	1.270860917081089e-12 	101324.9999999948
-0.4592092092092094 	300.0000000000079 	1.234310331337765e-12 	101324.999999995
-0.456706706706707 	300.0000000000351 	9.666252858676839e-13 	101324.9999999952
-0.4542042042042045 	299.9999999999598 	3.866483113932571e-13 	101324.9999999954
-0.451701701701702 	299.9999999999676 	4.196271641813249e-13 	101324.9999999953
-0.4491991991991995 	299.999999999975 	1.075209551894862e-12 	101324.9999999951
-0.4466966966966969 	299.999999999973 	3.61884733845067e-13 	101324.999999995
-0.4441941941941945 	299.999999999994 	2.11433560382435e-12 	101324.9999999949
-0.441691691691692 	299.9999999999705 	8.648360398741973e-13 	101324.9999999948
-0.4391891891891895 	299.9999999999887 	2.53138602007427e-12 	101324.9999999946
-0.436686686686687 	299.9999999999769 	2.015458279271781e-12 	101324.9999999944
-0.4341841841841846 	299.9999999999959 	3.187045542530097e-12 	101324.9999999945
-0.431681681681682 	299.9999999999663 	1.826734584556786e-12 	101324.9999999947
-0.4291791791791794 	299.999999999942 	2.270079019457996e-12 	101324.9999999948
-0.426676676676677 	299.9999999999478 	1.125556025281589e-12 	101324.9999999948
-0.4241741741741744 	299.9999999999796 	1.700817040235327e-12 	101324.999999995
-0.421671671671672 	300.0000000000023 	1.021420740920511e-12 	101324.9999999949
-0.4191691691691694 	300.0000000000309 	5.022146978853401e-13 	101324.9999999948
-0.4166666666666669 	300.0000000000363 	1.157013344729289e-12 	101324.9999999949
-0.4141641641641645 	299.9999999999604 	3.810248412836407e-13 	101324.9999999945
-0.411661661661662 	300.0000000000015 	5.827743167061011e-13 	101324.9999999945
-0.4091591591591594 	300.0000000000068 	4.94791556304001e-13 	101324.9999999945
-0.406656656656657 	299.9999999999648 	1.551478884093942e-12 	101324.9999999945
-0.4041541541541545 	300.000000000011 	6.705714744913119e-13 	101324.9999999945
-0.401651651651652 	299.9999999999509 	2.432433680226117e-12 	101324.9999999946
-0.3991491491491494 	300.0000000000024 	9.737397134935971e-13 	101324.9999999949
-0.396646646646647 	299.9999999999712 	3.49487542246213e-12 	101324.999999995
-0.3941441441441444 	299.9999999999818 	1.586795696349462e-12 	101324.9999999951
-0.3916416416416419 	299.9999999999553 	2.908742006499235e-12 	101324.9999999948
-0.3891391391391395 	299.9999999999744 	1.446842185837935e-12 	101324.9999999945
-0.3866366366366368 	299.9999999999717 	2.000758563513776e-12 	101324.9999999945
-0.3841341341341344 	300.0000000000007 	8.375970712875777e-13 	101324.9999999945
-0.381631631631632 	299.999999999971 	1.031751668986427e-12 	101324.9999999946
-0.3791291291291294 	300.0000000000008 	8.555236743871992e-13 	101324.9999999945
-0.3766266266266269 	300.0000000000118 	7.521758776363777e-13 	101324.9999999945
-0.3741241241241244 	300.0000000000138 	2.462926399841189e-12 	101324.9999999946
-0.371621621621622 	300.0000000000135 	7.406514453510068e-13 	101324.9999999947
-0.3691191191191194 	300.000000000005 	3.254453618961921e-12 	101324.9999999946
-0.366616616616617 	300.0000000000038 	8.108576429207418e-13 	101324.9999999947
-0.3641141141141143 	299.9999999999815 	3.36306303130174e-12 	101324.9999999945
-0.3616116116116119 	299.9999999999629 	1.803166799901911e-12 	101324.9999999944
-0.3591091091091095 	299.9999999999893 	3.044706445709602e-12 	101324.9999999946
-0.356606606606607 	299.9999999999927 	1.952120528976173e-12 	101324.9999999945
-0.3541041041041044 	299.9999999999962 	1.410885445086648e-12 	101324.9999999947
-0.3516016016016019 	300.0000000000132 	1.689148396280783e-12 	101324.9999999947
-0.3490990990990994 	299.9999999999949 	4.260323733072913e-13 	101324.9999999945
-0.346596596596597 	300.0000000000236 	2.240040517498361e-12 	101324.9999999942
-0.3440940940940944 	300.0000000000288 	6.867164663773748e-13 	101324.9999999939
-0.3415915915915919 	300.000000000016 	2.11825062129227e-12 	101324.9999999939
-0.3390890890890895 	299.9999999999885 	8.534434278929664e-13 	101324.999999994
-0.3365865865865869 	300.0000000000116 	2.287740547726474e-12 	101324.9999999937
-0.3340840840840844 	299.9999999999976 	2.194958624262373e-12 	101324.9999999938
-0.3315815815815819 	300.0000000000139 	3.486867462868366e-12 	101324.9999999939
-0.3290790790790794 	300.0000000000151 	3.903188372770617e-12 	101324.9999999943
-0.3265765765765769 	299.9999999999558 	4.517349456083404e-12 	101324.9999999943
-0.3240740740740744 	299.9999999999998 	3.045886336597898e-12 	101324.9999999942
-0.3215715715715718 	300.0000000000081 	3.730109722832546e-12 	101324.9999999944
-0.3190690690690695 	299.9999999999611 	2.608804978876856e-12 	101324.9999999943
-0.3165665665665668 	299.9999999999921 	3.730875630799797e-12 	101324.999999994
-0.3140640640640644 	299.9999999999999 	2.289874295427219e-12 	101324.9999999943
-0.311561561561562 	299.9999999999545 	4.657206372149091e-12 	101324.9999999945
-0.3090590590590593 	299.9999999999934 	1.698161128214968e-12 	101324.9999999942
-0.3065565565565568 	300.0000000000001 	6.243107783052405e-12 	101324.9999999941
-0.3040540540540545 	299.9999999999989 	1.950288922440379e-12 	101324.9999999941
-0.3015515515515518 	300.0000000000202 	6.511114765978634e-12 	101324.9999999942
-0.2990490490490494 	299.999999999965 	4.130659744442064e-12 	101324.9999999943
-0.2965465465465469 	299.9999999999936 	5.774498809181432e-12 	101324.9999999943
-0.2940440440440444 	299.999999999997 	4.240199889041122e-12 	101324.9999999941
-0.2915415415415418 	300.0000000000053 	4.984942528766121e-12 	101324.9999999942
-0.2890390390390395 	300.0000000000064 	5.355292355125108e-12 	101324.9999999943
-0.2865365365365368 	299.9999999999848 	4.337448945990976e-12 	101324.999999994
-0.2840340340340343 	299.9999999999932 	5.928736444970444e-12 	101324.9999999941
-0.2815315315315318 	299.9999999999531 	3.76759102222236e-12 	101324.9999999943
-0.2790290290290295 	299.9999999999753 	5.010525140953249e-12 	101324.999999994
-0.2765265265265269 	300.0000000000063 	4.064725284295482e-12 	101324.9999999942
-0.2740240240240244 	300.0000000000153 	4.929612324930652e-12 	101324.9999999943
-0.2715215215215219 	300.0000000000086 	5.507295615521774e-12 	101324.9999999944
-0.2690190190190194 	299.999999999961 	5.250735489356772e-12 	101324.9999999943
-0.2665165165165169 	299.9999999999972 	6.610978874807595e-12 	101324.9999999945
-0.2640140140140144 	299.9999999999819 	5.634933570970976e-12 	101324.9999999944
-0.2615115115115119 	299.9999999999995 	7.325530238927514e-12 	101324.9999999943
-0.2590090090090094 	299.9999999999541 	5.276474846446348e-12 	101324.9999999942
-0.2565065065065068 	299.9999999999927 	6.30528582485116e-12 	101324.9999999939
-0.2540040040040044 	299.9999999999962 	5.945835826687904e-12 	101324.9999999941
-0.2515015015015019 	300.0000000000231 	5.550499384809139e-12 	101324.999999994
-0.2489989989989994 	300.0000000000283 	6.901124683407138e-12 	101324.999999994
-0.2464964964964968 	299.9999999999906 	5.228413880407689e-12 	101324.9999999937
-0.2439939939939944 	299.9999999999947 	7.492925264929442e-12 	101324.9999999935
-0.2414914914914919 	299.9999999999798 	4.102426600068327e-12 	101324.999999994
-0.2389889889889893 	299.9999999999997 	7.193649989618131e-12 	101324.9999999937
-0.2364864864864869 	300.0000000000126 	4.440810354448278e-12 	101324.9999999942
-0.2339839839839843 	299.9999999999586 	7.210688079301077e-12 	101324.9999999946
-0.2314814814814819 	299.9999999999885 	4.130594677079822e-12 	101324.9999999945
-0.2289789789789792 	299.9999999999509 	7.25048087083117e-12 	101324.9999999945
-0.2264764764764769 	299.9999999999644 	5.272565434439318e-12 	101324.9999999944
-0.2239739739739743 	299.9999999999724 	6.560460856819564e-12 	101324.9999999943
-0.2214714714714718 	299.9999999999603 	6.570311221241203e-12 	101324.9999999942
-0.2189689689689693 	299.9999999999794 	5.523315914356449e-12 	101324.999999994
-0.2164664664664669 	299.9999999999849 	5.973899794977985e-12 	101324.9999999944
-0.2139639639639643 	299.9999999999529 	3.36289724390734e-12 	101324.9999999943
-0.2114614614614618 	299.9999999999835 	4.94754660537661e-12 	101324.9999999943
-0.2089589589589593 	299.9999999999968 	4.128230606384163e-12 	101324.9999999942
-0.2064564564564568 	299.9999999999963 	3.832722481858461e-12 	101324.9999999941
-0.2039539539539543 	299.9999999999474 	4.469698364909628e-12 	101324.9999999941
-0.2014514514514518 	299.999999999958 	2.594041016735721e-12 	101324.9999999939
-0.1989489489489494 	299.999999999984 	4.613810480939784e-12 	101324.9999999938
-0.1964464464464468 	299.9999999999918 	1.683803579466409e-12 	101324.9999999938
-0.1939439439439443 	299.9999999999916 	4.922722544051297e-12 	101324.999999994
-0.1914414414414418 	299.9999999999482 	3.295928529924872e-12 	101324.9999999939
-0.1889389389389393 	300.0000000000034 	3.837021243640607e-12 	101324.999999994
-0.1864364364364368 	300.0000000000248 	3.568325443506918e-12 	101324.9999999944
-0.1839339339339343 	299.9999999999825 	3.895282658139903e-12 	101324.9999999945
-0.1814314314314318 	299.999999999997 	3.570085270661417e-12 	101324.9999999943
-0.1789289289289293 	299.9999999999384 	3.537196487564331e-12 	101324.999999994
-0.1764264264264268 	299.9999999999836 	2.43421205720892e-12 	101324.9999999941
-0.1739239239239243 	299.9999999999384 	3.464445891288592e-12 	101324.9999999941
-0.1714214214214218 	299.9999999999903 	1.713871354333296e-12 	101324.9999999939
-0.1689189189189193 	299.999999999969 	4.672800898073758e-12 	101324.999999994
-0.1664164164164168 	299.9999999999984 	1.705539285843392e-12 	101324.9999999941
-0.1639139139139143 	299.9999999999908 	6.359101157867073e-12 	101324.9999999943
-0.1614114114114118 	300.0000000000182 	7.74606728526078e-13 	101324.9999999941
-0.1589089089089093 	299.9999999999984 	7.96615544821988e-12 	101324.999999994
-0.1564064064064068 	299.9999999999844 	1.912515131778796e-12 	101324.9999999941
-0.1539039039039043 	299.9999999999972 	7.600062708757575e-12 	101324.9999999938
-0.1514014014014018 	300.0000000000181 	1.93038591333964e-12 	101324.9999999939
-0.1488988988988993 	299.999999999994 	6.979943588872717e-12 	101324.9999999938
-0.1463963963963968 	299.9999999999993 	4.730493438193433e-13 	101324.9999999938
-0.1438938938938943 	299.9999999999728 	6.34142156568089e-12 	101324.9999999937
-0.1413913913913918 	299.9999999999472 	2.317135929901893e-12 	101324.9999999936
-0.1388888888888893 	299.9999999999831 	5.429614542032928e-12 	101324.9999999937
-0.1363863863863868 	299.999999999934 	3.665981245816168e-12 	101324.9999999936
-0.1338838838838843 	299.9999999999513 	4.695220809239312e-12 	101324.9999999934
-0.1313813813813818 	299.9999999999874 	3.818882953346604e-12 	101324.9999999933
-0.1288788788788793 	299.9999999999728 	5.642499207315322e-12 	101324.9999999932
-0.1263763763763768 	299.9999999999774 	3.798574326488742e-12 	101324.9999999933
-0.1238738738738743 	299.999999999952 	5.229383480767537e-12 	101324.9999999935
-0.1213713713713717 	299.9999999999858 	3.285471629715698e-12 	101324.9999999935
-0.1188688688688693 	300.0000000000055 	5.418289711193429e-12 	101324.9999999937
-0.1163663663663668 	299.9999999999406 	1.703203158673633e-12 	101324.9999999934
-0.1138638638638643 	299.999999999993 	4.814422419377947e-12 	101324.999999994
-0.1113613613613618 	299.999999999994 	3.952685088672339e-13 	101324.999999994
-0.1088588588588592 	299.9999999999864 	4.847043364747663e-12 	101324.9999999942
-0.1063563563563568 	299.9999999999696 	4.443982702854565e-13 	101324.9999999943
-0.1038538538538543 	299.9999999999888 	4.497689491988986e-12 	101324.9999999943
-0.1013513513513517 	300.0000000000092 	2.127859221121912e-12 	101324.9999999941
-0.09884884884884926 	299.9999999999632 	4.146005363746738e-12 	101324.9999999942
-0.09634634634634676 	299.999999999938 	2.003316341378353e-12 	101324.9999999944
-0.09384384384384425 	299.9999999999498 	2.67534940402821e-12 	101324.9999999944
-0.09134134134134177 	300.0000000000161 	2.468539913874646e-12 	101324.9999999943
-0.08883883883883925 	300.0000000000046 	4.35906597888645e-12 	101324.9999999943
-0.08633633633633674 	299.9999999999699 	3.797509943646474e-12 	101324.9999999943
-0.08383383383383426 	300.0000000000024 	3.629938837281058e-12 	101324.9999999943
-0.08133133133133173 	299.999999999975 	3.580407661419332e-12 	101324.9999999946
-0.07882882882882926 	299.999999999927 	3.043011979204279e-12 	101324.9999999944
-0.07632632632632676 	299.9999999999721 	2.710837816879929e-12 	101324.9999999945
-0.07382382382382424 	299.9999999999341 	2.165033676341057e-12 	101324.9999999944
-0.07132132132132173 	300.0000000000068 	1.614122333820406e-12 	101324.9999999945
-0.06881881881881925 	299.9999999999702 	2.221238034936505e-12 	101324.9999999945
-0.06631631631631671 	299.999999999931 	1.653979243586389e-12 	101324.9999999943
-0.06381381381381425 	299.9999999999747 	1.15313915879204e-12 	101324.9999999944
-0.06131131131131173 	299.9999999999766 	1.161370948340945e-12 	101324.9999999947
-0.05880880880880923 	299.9999999999471 	8.006453439983702e-13 	101324.9999999948
-0.05630630630630672 	299.9999999999808 	8.858931020834916e-13 	101324.999999995
-0.05380380380380424 	300.0000000000093 	8.960622182373897e-13 	101324.9999999947
-0.05130130130130173 	300.0000000000076 	1.332127320973597e-12 	101324.9999999947
-0.04879879879879922 	299.9999999999617 	1.33441728359691e-12 	101324.9999999945
-0.04629629629629672 	299.9999999999582 	1.163688867985869e-12 	101324.9999999942
-0.04379379379379422 	299.9999999999472 	1.251499720590242e-12 	101324.9999999941
-0.04129129129129173 	299.9999999999883 	3.974292933340884e-13 	101324.9999999939
-0.03878878878878922 	299.9999999999889 	7.597614045567462e-13 	101324.999999994
-0.03628628628628671 	299.9999999999894 	6.82922470317398e-13 	101324.9999999943
-0.03378378378378422 	299.9999999999549 	9.845925088627416e-13 	101324.9999999945
-0.03128128128128172 	299.999999999979 	3.777268450087142e-13 	101324.9999999944
-0.02877877877877922 	299.9999999999786 	7.679020617602124e-13 	101324.9999999943
-0.0262762762762767 	299.9999999999375 	5.832734801940214e-13 	101324.9999999942
-0.02377377377377422 	300.0000000000095 	2.262202368666285e-13 	101324.9999999944
-0.0212712712712717 	299.9999999999409 	3.053933749785625e-13 	101324.9999999944
-0.01876876876876921 	299.9999999999872 	6.11353989364156e-13 	101324.9999999946
-0.01626626626626671 	300.0000000000084 	5.051502573737217e-13 	101324.9999999946
-0.0137637637637642 	299.9999999999796 	9.978547828260763e-13 	101324.9999999947
-0.0112612612612617 	300.0000000000104 	5.490530294823602e-13 	101324.9999999947
-0.008758758758759198 	299.9999999999976 	6.794617035430252e-15 	101324.9999999946
-0.006256256256256697 	299.9999999999299 	3.489504177753259e-13 	101324.9999999946
-0.003753753753754195 	299.9999999999686 	8.271061193659613e-13 	101324.9999999944
-0.001251251251251693 	299.9999999999571 	8.499455174434988e-13 	101324.9999999944
0.00125125125125081 	299.9999999999673 	1.232437700655119e-12 	101324.9999999945
0.003753753753753312 	299.9999999999778 	9.294683978402506e-13 	101324.9999999943
0.006256256256255817 	299.9999999999318 	1.287555306926803e-12 	101324.9999999943
0.008758758758758317 	299.9999999999987 	9.412575716391623e-13 	101324.9999999944
0.01126126126126082 	300.0000000000055 	7.73746623180291e-13 	101324.9999999944
0.01376376376376332 	299.9999999999802 	8.891046649585477e-13 	101324.9999999944
0.01626626626626582 	300.0000000000065 	1.151321088929218e-12 	101324.9999999944
0.01876876876876833 	299.9999999999646 	4.509266247512771e-13 	101324.9999999944
0.02127127127127083 	299.9999999999786 	2.772345669093386e-13 	101324.9999999945
0.02377377377377332 	299.9999999999971 	8.23571516163031e-14 	101324.9999999944
0.02627627627627583 	299.9999999999386 	5.992911690275326e-13 	101324.9999999943
0.02877877877877833 	300.0000000000084 	1.427872031316274e-12 	101324.9999999943
0.03128128128128083 	299.9999999999637 	1.389641840265611e-12 	101324.9999999943
0.03378378378378333 	299.9999999999385 	2.353873942626145e-12 	101324.9999999944
0.03628628628628584 	299.999999999981 	2.360420491154207e-12 	101324.9999999947
0.03878878878878834 	299.9999999999896 	1.96928995579332e-12 	101324.9999999947
0.04129129129129084 	299.9999999999872 	1.482375159346503e-12 	101324.9999999946
0.04379379379379333 	299.999999999968 	1.149946990269047e-12 	101324.9999999945
0.04629629629629585 	299.9999999999317 	1.670421635739186e-12 	101324.9999999946
0.04879879879879834 	299.9999999999756 	2.613872307952819e-12 	101324.9999999947
0.05130130130130085 	300.000000000009 	3.158583698187731e-12 	101324.9999999947
0.05380380380380335 	300.0000000000098 	3.304171438449729e-12 	101324.9999999947
0.05630630630630584 	299.9999999999984 	3.148654863834012e-12 	101324.9999999947
0.05880880880880836 	299.9999999999536 	2.377001193054676e-12 	101324.9999999947
0.06131131131131085 	299.9999999999788 	1.678362089327371e-12 	101324.9999999947
0.06381381381381336 	299.999999999977 	1.439217518334646e-12 	101324.9999999945
0.06631631631631586 	299.9999999999312 	1.447368526419849e-12 	101324.9999999946
0.06881881881881835 	299.9999999999684 	1.893481735405397e-12 	101324.9999999943
0.07132132132132088 	299.9999999999942 	1.839689797246286e-12 	101324.9999999942
0.07382382382382337 	299.9999999999375 	2.408980661282164e-12 	101324.9999999941
0.07632632632632587 	299.9999999999781 	2.520170729467959e-12 	101324.9999999942
0.07882882882882837 	299.9999999999574 	2.899923275192244e-12 	101324.9999999941
0.08133133133133086 	299.9999999999847 	2.993140664678162e-12 	101324.9999999938
0.08383383383383337 	299.9999999999933 	2.388340060635162e-12 	101324.9999999941
0.08633633633633589 	299.9999999999437 	2.175927181105519e-12 	101324.9999999941
0.08883883883883838 	300.0000000000015 	2.705058910006314e-12 	101324.9999999943
0.09134134134134086 	299.9999999999837 	2.611015045997405e-12 	101324.9999999943
0.09384384384384339 	299.9999999999339 	3.923279945291777e-12 	101324.9999999942
0.09634634634634588 	299.9999999999778 	4.579108086237358e-12 	101324.9999999941
0.09884884884884838 	299.9999999999841 	4.829550423256978e-12 	101324.9999999941
0.1013513513513509 	300.0000000000134 	4.50152858650836e-12 	101324.9999999945
0.1038538538538534 	299.9999999999702 	4.54229768580192e-12 	101324.9999999945
0.1063563563563559 	300.0000000000035 	4.927648986475548e-12 	101324.9999999945
0.1088588588588584 	300.0000000000192 	3.997137383740428e-12 	101324.9999999944
0.1113613613613609 	299.9999999999565 	3.92528125045576e-12 	101324.9999999938
0.1138638638638634 	299.9999999999645 	3.890830448985323e-12 	101324.9999999937
0.1163663663663659 	299.9999999999637 	4.00810185970946e-12 	101324.9999999934
0.1188688688688684 	299.9999999999858 	3.77635059616221e-12 	101324.9999999937
0.1213713713713709 	299.999999999998 	3.03554827498005e-12 	101324.9999999939
0.1238738738738734 	299.9999999999499 	3.137628784061335e-12 	101324.9999999939
0.1263763763763759 	299.9999999999883 	3.333789028842993e-12 	101324.9999999941
0.1288788788788784 	299.9999999999906 	3.099022098018247e-12 	101324.999999994
0.1313813813813809 	299.9999999999888 	2.738808296355424e-12 	101324.9999999941
0.1338838838838834 	299.9999999999799 	3.02518670472805e-12 	101324.999999994
0.1363863863863859 	300.000000000011 	2.824304411061914e-12 	101324.9999999941
0.1388888888888884 	300.0000000000289 	2.765682571017639e-12 	101324.9999999943
0.1413913913913909 	300.0000000000006 	3.017337402101444e-12 	101324.9999999946
0.1438938938938934 	299.9999999999915 	3.830181683960294e-12 	101324.9999999947
0.1463963963963959 	299.9999999999707 	3.23585095000432e-12 	101324.999999995
0.1488988988988985 	299.9999999999427 	3.967217576199636e-12 	101324.9999999946
0.1514014014014009 	299.9999999999759 	2.564053315497886e-12 	101324.9999999943
0.1539039039039035 	299.999999999977 	4.406179741199684e-12 	101324.9999999945
0.1564064064064059 	299.9999999999648 	2.714525106791302e-12 	101324.9999999944
0.1589089089089084 	299.999999999988 	5.816229561555639e-12 	101324.9999999942
0.1614114114114109 	299.9999999999848 	3.899768009294679e-12 	101324.9999999944
0.1639139139139134 	299.9999999999404 	6.527683024339238e-12 	101324.999999994
0.166416416416416 	300.000000000001 	5.893799146504063e-12 	101324.9999999934
0.1689189189189185 	300.0000000000168 	5.424017195668827e-12 	101324.9999999937
0.1714214214214209 	299.9999999999991 	5.600754533116424e-12 	101324.9999999938
0.1739239239239235 	299.9999999999881 	3.73939799464294e-12 	101324.9999999941
0.1764264264264259 	299.9999999999807 	6.152679503170328e-12 	101324.9999999945
0.1789289289289284 	299.9999999999994 	4.408422056578626e-12 	101324.9999999942
0.181431431431431 	299.9999999999737 	7.173035744217008e-12 	101324.9999999942
0.1839339339339334 	299.9999999999778 	4.539306897029744e-12 	101324.9999999942
0.186436436436436 	299.9999999999563 	5.891560686644345e-12 	101324.9999999942
0.1889389389389385 	299.9999999999865 	5.258751192424475e-12 	101324.9999999942
0.191441441441441 	299.9999999999839 	5.180591805674446e-12 	101324.9999999939
0.1939439439439434 	299.9999999999507 	6.112704094292046e-12 	101324.9999999936
0.196446446446446 	299.999999999964 	4.118738545488073e-12 	101324.9999999935
0.1989489489489485 	299.9999999999746 	6.369538117138259e-12 	101324.9999999936
0.2014514514514509 	299.9999999999873 	3.707705526975864e-12 	101324.999999994
0.2039539539539535 	299.9999999999973 	4.879086895777627e-12 	101324.9999999939
0.2064564564564559 	299.9999999999746 	4.098671724350257e-12 	101324.9999999938
0.2089589589589585 	299.9999999999887 	4.831264798838273e-12 	101324.999999994
0.211461461461461 	299.9999999999573 	4.927436207559616e-12 	101324.9999999939
0.2139639639639635 	299.9999999999883 	4.106274017795136e-12 	101324.9999999939
0.2164664664664659 	300.0000000000035 	4.814658670905215e-12 	101324.9999999939
0.2189689689689684 	300.0000000000026 	2.801528601615852e-12 	101324.999999994
0.221471471471471 	299.9999999999941 	4.949957829108965e-12 	101324.999999994
0.2239739739739735 	299.9999999999701 	3.278285583956409e-12 	101324.999999994
0.226476476476476 	299.9999999999868 	4.898904843315729e-12 	101324.9999999942
0.2289789789789785 	299.9999999999977 	4.41284995483437e-12 	101324.9999999941
0.231481481481481 	299.9999999999963 	4.127941106432048e-12 	101324.999999994
0.2339839839839835 	299.9999999999898 	4.986222927128169e-12 	101324.9999999945
0.236486486486486 	300.0000000000156 	3.859608908940766e-12 	101324.9999999945
0.2389889889889885 	300.0000000000027 	5.405288333448719e-12 	101324.9999999943
0.241491491491491 	299.9999999999499 	3.662988015591067e-12 	101324.9999999945
0.2439939939939935 	299.9999999999815 	6.68006414398201e-12 	101324.9999999945
0.246496496496496 	299.9999999999896 	3.894277965375383e-12 	101324.9999999946
0.2489989989989985 	300.0000000000222 	5.086323128283301e-12 	101324.9999999949
0.251501501501501 	300.0000000000182 	3.952853930600882e-12 	101324.9999999946
0.2540040040040035 	299.9999999999906 	3.692011148422539e-12 	101324.9999999948
0.256506506506506 	300.0000000000212 	3.531362876451234e-12 	101324.9999999946
0.2590090090090086 	299.9999999999429 	2.150521309496385e-12 	101324.9999999946
0.261511511511511 	300.0000000000015 	5.554905584705868e-12 	101324.9999999943
0.2640140140140135 	299.9999999999954 	3.23997189577875e-12 	101324.9999999945
0.2665165165165161 	299.9999999999578 	4.583074582847841e-12 	101324.9999999944
0.2690190190190185 	300.0000000000055 	2.633401349901793e-12 	101324.999999994
0.271521521521521 	300.0000000000043 	2.153480767259452e-12 	101324.9999999939
0.2740240240240235 	300.0000000000113 	1.837507468719567e-12 	101324.9999999938
0.276526526526526 	300.0000000000055 	7.694482025514666e-13 	101324.9999999939
0.2790290290290286 	299.9999999999636 	2.352136972349443e-12 	101324.9999999938
0.281531531531531 	299.9999999999488 	1.047239893393629e-12 	101324.9999999938
0.2840340340340335 	299.9999999999873 	3.4015605480576e-12 	101324.9999999937
0.2865365365365361 	299.9999999999717 	2.191052334775062e-12 	101324.9999999938
0.2890390390390385 	299.9999999999998 	3.217027881185648e-12 	101324.999999994
0.291541541541541 	299.9999999999998 	2.443647517310064e-12 	101324.9999999942
0.2940440440440436 	299.9999999999966 	2.674376646251613e-12 	101324.9999999943
0.296546546546546 	299.9999999999943 	3.816894424566649e-12 	101324.9999999946
0.2990490490490486 	299.9999999999569 	2.268823144924285e-12 	101324.9999999945
0.3015515515515511 	300.0000000000255 	4.658531937718401e-12 	101324.9999999944
0.3040540540540535 	299.9999999999985 	1.107088688860675e-12 	101324.9999999942
0.3065565565565562 	299.9999999999961 	4.748921464776236e-12 	101324.999999994
0.3090590590590585 	299.9999999999922 	6.369722825442726e-13 	101324.9999999943
0.3115615615615611 	299.9999999999572 	3.563811281339363e-12 	101324.9999999943
0.3140640640640635 	300.0000000000002 	1.549720511916103e-12 	101324.9999999944
0.316566566566566 	299.9999999999933 	3.230656791652165e-12 	101324.9999999942
0.3190690690690687 	299.9999999999698 	1.765876612540855e-12 	101324.999999994
0.3215715715715711 	300.0000000000105 	2.802916955579945e-12 	101324.999999994
0.3240740740740735 	299.9999999999994 	1.621131855149876e-12 	101324.9999999941
0.326576576576576 	299.999999999938 	2.658283940032332e-12 	101324.9999999942
0.3290790790790786 	300.0000000000032 	2.640695600454591e-12 	101324.9999999939
0.3315815815815811 	300.0000000000216 	2.955231473482524e-12 	101324.9999999936
0.3340840840840836 	299.999999999988 	2.216488197371132e-12 	101324.9999999937
0.3365865865865861 	300.0000000000383 	1.942728878478672e-12 	101324.9999999937
0.3390890890890886 	300.0000000000321 	1.998973984805468e-13 	101324.999999994
0.3415915915915911 	300.0000000000027 	6.780287081602396e-13 	101324.999999994
0.3440940940940935 	299.999999999974 	1.049971835701137e-12 	101324.9999999942
0.3465965965965962 	300.0000000000211 	1.268887611542487e-12 	101324.999999994
0.3490990990990985 	300.0000000000167 	3.064704274136008e-13 	101324.999999994
0.3516016016016011 	299.9999999999914 	3.264397697367636e-13 	101324.9999999941
0.3541041041041035 	300.0000000000044 	3.723562383867963e-13 	101324.9999999939
0.3566066066066061 	299.9999999999727 	8.012438279197635e-13 	101324.999999994
0.3591091091091085 	299.9999999999505 	7.270459064849153e-13 	101324.9999999943
0.3616116116116112 	299.9999999999633 	1.297316480140458e-12 	101324.9999999942
0.3641141141141137 	299.9999999999556 	1.311877158256996e-12 	101324.999999994
0.3666166166166161 	299.9999999999502 	1.659303432537778e-12 	101324.9999999938
0.3691191191191185 	300.0000000000207 	2.90567445254946e-12 	101324.9999999937
0.371621621621621 	300.0000000000123 	8.778849228129825e-13 	101324.9999999939
0.3741241241241237 	300.0000000000285 	2.11897599009547e-12 	101324.9999999939
0.3766266266266261 	300.0000000000144 	2.690034535176054e-13 	101324.9999999939
0.3791291291291286 	299.9999999999907 	1.224646661263135e-12 	101324.9999999943
0.3816316316316311 	299.999999999948 	1.358479495715991e-12 	101324.9999999946
0.3841341341341336 	300.0000000000044 	8.026931396333661e-13 	101324.9999999948
0.3866366366366362 	299.9999999999967 	9.065315750786206e-13 	101324.9999999947
0.3891391391391387 	299.9999999999725 	3.124470189180504e-13 	101324.9999999946
0.391641641641641 	299.9999999999955 	3.612858138682e-13 	101324.9999999946
0.3941441441441436 	300.0000000000056 	4.296611410921736e-13 	101324.9999999945
0.3966466466466462 	299.9999999999992 	5.277943350209962e-13 	101324.9999999943
0.3991491491491486 	299.9999999999683 	4.068524024667514e-13 	101324.9999999944
0.4016516516516512 	299.9999999999498 	1.071690106196473e-12 	101324.9999999946
0.4041541541541536 	299.9999999999695 	7.367926382617372e-13 	101324.9999999946
0.4066566566566561 	299.9999999999714 	1.521936071003177e-12 	101324.9999999946
0.4091591591591587 	299.9999999999998 	6.927703338763247e-13 	101324.9999999947
0.4116616616616612 	300.0000000000049 	1.512529023110632e-12 	101324.9999999945
0.4141641641641635 	300.0000000000213 	3.736885453341839e-13 	101324.9999999943
0.4166666666666662 	299.9999999999972 	8.185396846718601e-13 	101324.9999999939
0.4191691691691687 	299.9999999999649 	8.749116478782574e-13 	101324.9999999941
0.421671671671671 	300.0000000000047 	1.404219470144701e-12 	101324.9999999941
0.4241741741741737 	299.9999999999866 	2.871442247585934e-12 	101324.9999999945
0.4266766766766761 	299.99999999997 	1.77846878797998e-12 	101324.9999999946
0.4291791791791785 	300.0000000000155 	3.037324992154788e-12 	101324.9999999946
0.4316816816816812 	300.0000000000061 	2.167648689333503e-12 	101324.9999999945
0.4341841841841836 	299.9999999999891 	3.004219692896511e-12 	101324.9999999944
0.4366866866866862 	299.99999999995 	4.401694142992139e-13 	101324.9999999944
0.4391891891891885 	299.9999999999928 	1.95504516309309e-12 	101324.9999999943
0.4416916916916913 	299.9999999999924 	8.055111649620321e-13 	101324.9999999945
0.4441941941941936 	299.9999999999947 	1.500366622985891e-12 	101324.9999999946
0.4466966966966961 	299.9999999999509 	7.554082477562533e-13 	101324.9999999945
0.4491991991991987 	299.9999999999911 	8.620536088181495e-13 	101324.9999999946
0.4517017017017012 	299.9999999999903 	9.34125887974004e-13 	101324.9999999944
0.4542042042042035 	299.9999999999919 	9.556755229377297e-13 	101324.9999999942
0.4567067067067062 	299.9999999999999 	1.6677620808802e-12 	101324.9999999943
0.4592092092092087 	299.9999999999578 	1.704623384405959e-12 	101324.9999999941
0.4617117117117112 	300.0000000000117 	2.369795916184942e-12 	101324.9999999942
0.4642142142142137 	299.9999999999782 	2.940356781812944e-12 	101324.999999994
0.4667167167167162 	299.9999999999944 	3.180250064140728e-12 	101324.9999999938
0.4692192192192187 	299.999999999976 	3.117725487887365e-12 	101324.999999994
0.4717217217217212 	300.0000000000024 	2.768852346470016e-12 	101324.9999999942
0.4742242242242236 	299.9999999999723 	2.86909086182562e-12 	101324.999999994
0.4767267267267262 	299.9999999999832 	1.955695316631695e-12 	101324.9999999939
0.4792292292292287 	300.000000000013 	1.903539364321253e-12 	101324.9999999941
0.4817317317317312 	300.0000000000192 	1.938008600669092e-12 	101324.9999999941
0.4842342342342336 	299.9999999999901 	2.191269013983506e-12 	101324.9999999944
0.4867367367367362 	299.9999999999743 	2.85193712232425e-12 	101324.9999999945
0.4892392392392387 	300.00000000002 	2.41097256512397e-12 	101324.9999999944
0.4917417417417412 	300.0000000000052 	3.149872506400581e-12 	101324.9999999948
0.4942442442442437 	299.9999999999434 	2.557549182223581e-12 	101324.999999995
0.4967467467467462 	299.9999999999587 	4.021690266573204e-12 	101324.9999999948
0.4992492492492487 	299.9999999999493 	2.143557505719935e-12 	101324.9999999949
0.5017517517517511 	299.9999999999717 	3.333442059668399e-12 	101324.9999999947
0.5042542542542537 	299.9999999999785 	2.271368005731646e-12 	101324.9999999946
0.5067567567567562 	299.9999999999676 	2.547250337046247e-12 	101324.9999999945
0.5092592592592589 	299.9999999999782 	2.76982988156129e-12 	101324.9999999946
0.5117617617617611 	299.9999999999773 	2.795029398948469e-12 	101324.9999999948
0.5142642642642637 	299.999999999996 	4.394396865153435e-12 	101324.9999999951
0.5167667667667663 	299.9999999999857 	2.862533297298365e-12 	101324.999999995
0.5192692692692688 	299.999999999951 	5.068603640136475e-12 	101324.9999999948
0.5217717717717714 	299.9999999999649 	1.473592654486417e-12 	101324.9999999946
0.5242742742742736 	299.9999999999652 	5.029999844229386e-12 	101324.9999999948
0.5267767767767763 	299.9999999999777 	1.876481688165133e-12 	101324.9999999949
0.5292792792792789 	299.9999999999646 	3.905002310379913e-12 	101324.9999999946
0.5317817817817813 	299.9999999999413 	1.773652867309317e-12 	101324.9999999944
0.5342842842842837 	300.0000000000105 	2.795513217447336e-12 	101324.9999999943
0.5367867867867864 	300.0000000000016 	2.186992731703277e-12 	101324.9999999944
0.5392892892892888 	299.9999999999755 	1.964075900356949e-12 	101324.9999999944
0.5417917917917912 	300.0000000000053 	6.637696035631802e-13 	101324.9999999944
0.5442942942942938 	299.9999999999887 	9.171127852757088e-13 	101324.9999999947
0.5467967967967964 	299.9999999999741 	7.122529530365312e-13 	101324.9999999948
0.5492992992992988 	299.9999999999678 	1.810990643069753e-12 	101324.999999995
0.5518018018018012 	299.999999999964 	1.659487585029923e-12 	101324.9999999952
0.5543043043043039 	300.000000000013 	2.738959655039743e-12 	101324.9999999952
0.5568068068068063 	299.9999999999939 	2.529168373355653e-12 	101324.9999999953
0.5593093093093087 	299.9999999999443 	3.120692858011347e-12 	101324.9999999952
0.5618118118118114 	299.9999999999799 	1.566112304602229e-12 	101324.999999995
0.5643143143143137 	299.9999999999667 	2.633405569707758e-12 	101324.9999999948
0.5668168168168163 	299.9999999999959 	1.401842513933382e-12 	101324.9999999949
0.5693193193193188 	300.0000000000172 	1.621038948602957e-12 	101324.9999999951
0.5718218218218213 	300.0000000000147 	1.705413797354946e-12 	101324.9999999951
0.5743243243243239 	300.0000000000043 	1.637501417122838e-12 	101324.9999999951
0.5768268268268262 	300.000000000002 	2.49715106590656e-12 	101324.9999999951
0.5793293293293288 	299.9999999999678 	1.413790445932887e-12 	101324.999999995
0.5818318318318314 	299.9999999999548 	3.132879610964525e-12 	101324.9999999951
0.5843343343343338 	299.9999999999914 	1.935082531208598e-12 	101324.999999995
0.5868368368368363 	299.9999999999882 	2.935628812236038e-12 	101324.9999999948
0.5893393393393387 	299.9999999999724 	1.167484251140402e-12 	101324.9999999948
0.5918418418418413 	299.9999999999696 	2.736940249999858e-12 	101324.9999999948
0.5943443443443439 	300.0000000000099 	1.594581621141033e-12 	101324.9999999947
0.5968468468468463 	300.0000000000091 	3.305020097586877e-12 	101324.9999999946
0.5993493493493487 	300.0000000000234 	3.165315180347536e-12 	101324.9999999947
0.6018518518518514 	299.9999999999872 	4.144926423013746e-12 	101324.9999999945
0.6043543543543537 	299.9999999999968 	3.823753830185416e-12 	101324.9999999944
0.6068568568568564 	299.9999999999895 	4.045388314514206e-12 	101324.9999999946
0.6093593593593587 	299.9999999999591 	3.4339841804315e-12 	101324.9999999951
0.6118618618618614 	299.9999999999552 	3.733306361152066e-12 	101324.9999999953
0.6143643643643638 	300.0000000000107 	3.838521594458302e-12 	101324.9999999952
0.6168668668668662 	299.9999999999926 	4.984474306628612e-12 	101324.9999999954
0.6193693693693688 	299.9999999999728 	3.802929748071352e-12 	101324.9999999956
0.6218718718718714 	299.9999999999803 	4.515818707139629e-12 	101324.9999999958
0.6243743743743737 	299.9999999999645 	2.4938888234375e-12 	101324.9999999957
0.6268768768768762 	299.9999999999548 	3.469261755199118e-12 	101324.9999999952
0.629379379379379 	299.9999999999667 	2.752383539756114e-12 	101324.9999999949
0.6318818818818812 	299.9999999999783 	3.266283246495374e-12 	101324.9999999948
0.6343843843843838 	300.0000000000115 	2.556057185387348e-12 	101324.9999999947
0.6368868868868864 	299.9999999999894 	2.132336263023377e-12 	101324.9999999947
0.6393893893893888 	299.9999999999511 	2.837320517741225e-12 	101324.9999999948
0.6418918918918912 	300.0000000000041 	1.523476929676462e-12 	101324.9999999949
0.6443943943943939 	299.9999999999974 	3.710940356856999e-12 	101324.999999995
0.6468968968968963 	299.9999999999917 	1.874767329185612e-12 	101324.9999999948
0.6493993993993988 	299.999999999985 	4.224968746236273e-12 	101324.9999999948
0.6519019019019012 	299.9999999999841 	2.007134229629817e-12 	101324.9999999948
0.6544044044044038 	299.999999999945 	3.50182075452458e-12 	101324.9999999949
0.6569069069069065 	299.9999999999763 	1.234879457220207e-12 	101324.9999999949
0.6594094094094087 	299.9999999999786 	2.544898091244842e-12 	101324.9999999949
0.6619119119119113 	299.9999999999698 	1.078357298757871e-12 	101324.9999999949
0.664414414414414 	299.999999999998 	1.800955106047776e-12 	101324.999999995
0.6669169169169162 	300.0000000000096 	1.303757939625065e-12 	101324.999999995
0.6694194194194188 	299.9999999999894 	2.354893406349995e-12 	101324.9999999952
0.6719219219219214 	299.9999999999537 	1.883437581935885e-12 	101324.9999999952
0.674424424424424 	299.9999999999858 	2.609739959889083e-12 	101324.9999999952
0.6769269269269262 	299.9999999999523 	2.163686711330391e-12 	101324.9999999951
0.679429429429429 	300.0000000000033 	2.44788359192082e-12 	101324.9999999949
0.6819319319319311 	299.9999999999837 	1.799151537815039e-12 	101324.9999999949
0.6844344344344341 	299.9999999999985 	2.290984138940353e-12 	101324.9999999948
0.686936936936936 	299.9999999999961 	1.0684748141009e-12 	101324.9999999946
0.6894394394394392 	299.9999999999932 	1.414067894868464e-12 	101324.9999999944
0.6919419419419413 	299.9999999999897 	1.340421705487085e-12 	101324.9999999944
0.694444444444444 	299.9999999999626 	1.402757808991735e-12 	101324.9999999944
0.6969469469469463 	299.9999999999538 	1.025037080165922e-12 	101324.9999999944
0.6994494494494489 	299.99999999995 	5.354502044471881e-13 	101324.9999999943
0.7019519519519515 	299.9999999999897 	1.389933156863903e-12 	101324.9999999944
0.7044544544544538 	299.9999999999711 	1.35718449606107e-12 	101324.9999999945
0.7069569569569564 	299.9999999999952 	1.951331115848838e-12 	101324.9999999946
0.7094594594594589 	299.9999999999769 	1.231167966279621e-12 	101324.9999999947
0.7119619619619615 	299.9999999999446 	1.200187547049843e-12 	101324.9999999947
0.7144644644644638 	299.9999999999663 	6.431114704034972e-13 	101324.9999999949
0.7169669669669665 	299.9999999999507 	8.158515221094346e-13 	101324.9999999948
0.7194694694694688 	299.999999999993 	8.98305215662398e-13 	101324.9999999946
0.7219719719719715 	299.99999999999 	2.12729376287043e-12 	101324.9999999944
0.7244744744744737 	299.999999999999 	2.358018537930079e-12 	101324.9999999944
0.7269769769769764 	299.9999999999933 	2.509682576498708e-12 	101324.9999999945
0.7294794794794791 	299.999999999992 	3.469423669436462e-12 	101324.9999999947
0.7319819819819813 	299.9999999999874 	2.63027628554525e-12 	101324.9999999948
0.7344844844844839 	299.9999999999543 	3.787887371104519e-12 	101324.9999999947
0.7369869869869864 	299.9999999999731 	2.239443339142105e-12 	101324.9999999946
0.739489489489489 	299.9999999999651 	2.186684619686057e-12 	101324.9999999945
0.7419919919919914 	299.9999999999591 	1.798563841145736e-12 	101324.9999999944
0.7444944944944939 	299.9999999999868 	1.259775966405199e-12 	101324.9999999942
0.7469969969969963 	299.9999999999791 	2.444811420957218e-12 	101324.999999994
0.7494994994994989 	299.9999999999631 	1.915647839658808e-12 	101324.9999999939
0.7520020020020015 	299.9999999999814 	2.44040721473633e-12 	101324.9999999941
0.7545045045045039 	299.9999999999808 	1.785611043671969e-12 	101324.9999999943
0.7570070070070062 	299.9999999999651 	1.065056659748958e-12 	101324.9999999942
0.7595095095095092 	299.9999999999558 	1.11617959291672e-12 	101324.9999999942
0.7620120120120112 	299.9999999999996 	5.009991655698579e-13 	101324.9999999944
0.7645145145145138 	299.999999999992 	5.830714629997322e-13 	101324.9999999944
0.7670170170170165 	299.9999999999612 	8.875855929087869e-13 	101324.9999999943
0.7695195195195191 	299.9999999999524 	1.896647982495689e-12 	101324.9999999944
0.7720220220220213 	299.9999999999611 	1.330782638920106e-12 	101324.9999999944
0.7745245245245239 	299.9999999999638 	1.616232978856795e-12 	101324.9999999945
0.7770270270270263 	299.999999999986 	1.445941511893603e-12 	101324.9999999944
0.779529529529529 	299.9999999999892 	4.864603109039542e-13 	101324.9999999944
0.7820320320320313 	299.9999999999798 	1.074043367384582e-12 	101324.9999999944
0.784534534534534 	299.9999999999961 	1.050006637896504e-12 	101324.9999999942
0.7870370370370364 	299.9999999999932 	1.219233215284471e-12 	101324.9999999941
0.7895395395395389 	299.9999999999829 	1.944745198240053e-12 	101324.9999999942
0.7920420420420413 	299.9999999999826 	1.35930985761301e-12 	101324.9999999942
0.794544544544544 	299.9999999999897 	2.760165173680652e-12 	101324.9999999943
0.7970470470470463 	300.0000000000022 	1.852250367644242e-12 	101324.9999999945
0.799549549549549 	299.9999999999868 	2.699600337642082e-12 	101324.9999999945
0.8020520520520515 	299.9999999999894 	1.063954140689201e-12 	101324.9999999946
0.8045545545545539 	299.9999999999674 	2.062787474298403e-12 	101324.9999999946
0.8070570570570563 	299.9999999999916 	1.252479252815808e-12 	101324.9999999945
0.8095595595595589 	299.9999999999757 	2.379296109414597e-12 	101324.9999999946
0.8120620620620614 	299.9999999999583 	2.843637580583522e-12 	101324.9999999945
0.8145645645645638 	299.9999999999941 	2.817458207678827e-12 	101324.9999999946
0.8170670670670666 	299.9999999999913 	3.548846132731928e-12 	101324.9999999946
0.8195695695695689 	299.9999999999837 	2.768906288349195e-12 	101324.9999999945
0.8220720720720714 	299.9999999999661 	4.366728292667118e-12 	101324.9999999944
0.8245745745745739 	299.9999999999991 	2.351825896983381e-12 	101324.9999999945
0.8270770770770765 	299.9999999999864 	3.293120520509401e-12 	101324.9999999947
0.8295795795795788 	299.9999999999732 	2.483702051369463e-12 	101324.9999999946
0.8320820820820815 	300.0000000000122 	2.55567239214227e-12 	101324.9999999945
0.834584584584584 	300.0000000000005 	1.400523219123606e-12 	101324.9999999946
0.8370870870870865 	299.9999999999798 	1.36138955566617e-12 	101324.9999999948
0.8395895895895891 	299.9999999999574 	2.163237885261285e-12 	101324.9999999949
0.8420920920920915 	299.9999999999641 	1.876412917765469e-12 	101324.9999999948
0.844594594594594 	299.9999999999597 	1.962370502443434e-12 	101324.9999999948
0.8470970970970964 	299.999999999964 	1.627431506124523e-12 	101324.9999999948
0.8495995995995991 	299.9999999999873 	1.900459027972011e-12 	101324.9999999949
0.8521021021021015 	299.999999999984 	2.331158095395368e-12 	101324.9999999949
0.8546046046046039 	299.9999999999849 	1.982446782594239e-12 	101324.9999999947
0.8571071071071066 	299.999999999997 	2.621087945341199e-12 	101324.9999999947
0.8596096096096089 	299.9999999999735 	1.555157087432333e-12 	101324.9999999947
0.8621121121121116 	299.9999999999557 	3.095193144680147e-12 	101324.9999999946
0.8646146146146139 	299.9999999999906 	1.64934626303242e-12 	101324.9999999947
0.8671171171171166 	299.9999999999839 	2.978118695404131e-12 	101324.9999999948
0.8696196196196189 	299.9999999999691 	2.94487460324192e-12 	101324.9999999947
0.8721221221221216 	299.9999999999763 	3.525878538237077e-12 	101324.9999999946
0.874624624624624 	299.999999999998 	3.427048436351134e-12 	101324.9999999945
0.8771271271271264 	300 	3.510513352580496e-12 	101324.9999999945
0.879629629629629 	300.0000000000027 	4.434502632619145e-12 	101324.9999999944
0.8821321321321317 	299.9999999999904 	3.315111541638349e-12 	101324.9999999942
0.8846346346346339 	299.9999999999541 	5.278970320135344e-12 	101324.9999999942
0.8871371371371364 	299.9999999999738 	3.606101742529173e-12 	101324.9999999942
0.8896396396396391 	299.9999999999757 	4.958643411757368e-12 	101324.9999999944
0.8921421421421414 	299.999999999975 	4.67625738976534e-12 	101324.9999999943
0.8946446446446441 	299.9999999999891 	5.233388623060921e-12 	101324.9999999943
0.8971471471471464 	300.0000000000007 	4.984068209747189e-12 	101324.9999999943
0.8996496496496489 	299.9999999999839 	4.598152329215429e-12 	101324.9999999946
0.9021521521521517 	299.9999999999764 	4.747850104379982e-12 	101324.9999999947
0.9046546546546541 	299.9999999999947 	3.418759699033043e-12 	101324.9999999946
0.9071571571571564 	299.999999999968 	3.10605051024452e-12 	101324.9999999946
0.9096596596596589 	299.9999999999688 	2.336195911529952e-12 	101324.9999999946
0.9121621621621616 	300.0000000000027 	2.297035611208155e-12 	101324.9999999947
0.9146646646646639 	299.9999999999895 	2.158357322239033e-12 	101324.9999999948
0.9171671671671666 	299.9999999999716 	2.312666819411752e-12 	101324.9999999949
0.9196696696696689 	300.0000000000015 	2.788179934511071e-12 	101324.9999999949
0.9221721721721714 	300.0000000000018 	1.869973724705213e-12 	101324.9999999948
0.9246746746746741 	299.9999999999663 	3.299888907667306e-12 	101324.9999999948
0.9271771771771765 	299.9999999999654 	2.284177133477768e-12 	101324.9999999948
0.9296796796796791 	299.999999999991 	3.651092014871283e-12 	101324.9999999948
0.9321821821821816 	299.9999999999756 	2.741472976605946e-12 	101324.9999999946
0.9346846846846838 	299.9999999999641 	3.644261784193788e-12 	101324.9999999946
0.9371871871871866 	300.0000000000045 	3.618124815586389e-12 	101324.9999999946
0.9396896896896891 	300.0000000000061 	3.774139096371417e-12 	101324.9999999948
0.9421921921921914 	300.0000000000039 	4.221582369559073e-12 	101324.9999999948
0.9446946946946939 	299.9999999999782 	3.375379269229461e-12 	101324.999999995
0.9471971971971965 	299.999999999954 	4.165138873227326e-12 	101324.9999999952
0.9496996996996991 	299.9999999999759 	2.305204996723741e-12 	101324.9999999954
0.9522022022022016 	299.9999999999834 	2.884040358645276e-12 	101324.9999999956
0.9547047047047038 	299.999999999986 	2.239824780959343e-12 	101324.9999999959
0.9572072072072064 	299.9999999999831 	2.64994176312576e-12 	101324.9999999961
0.9597097097097093 	299.999999999984 	2.624804718206707e-12 	101324.999999996
0.9622122122122114 	299.9999999999791 	2.585049444566514e-12 	101324.9999999957
0.964714714714714 	299.9999999999791 	3.513861161493106e-12 	101324.9999999957
0.9672172172172167 	299.9999999999761 	3.591121563127123e-12 	101324.9999999956
0.969719719719719 	299.9999999999872 	4.821319730320982e-12 	101324.9999999955
0.9722222222222214 	299.9999999999857 	4.841140069574877e-12 	101324.9999999953
0.9747247247247239 	299.9999999999819 	5.077235063178231e-12 	101324.9999999954
0.9772272272272267 	299.9999999999999 	5.028205013186469e-12 	101324.9999999955
0.9797297297297292 	299.9999999999914 	5.168232971767545e-12 	101324.9999999956
0.9822322322322313 	299.9999999999926 	5.925338768830804e-12 	101324.9999999955
0.9847347347347344 	299.9999999999922 	5.032947133485456e-12 	101324.9999999957
0.9872372372372363 	299.9999999999725 	6.504924454064326e-12 	101324.9999999958
0.9897397397397389 	299.9999999999852 	4.898735667785315e-12 	101324.9999999959
0.9922422422422417 	299.999999999974 	6.109658982653317e-12 	101324.999999996
0.9947447447447441 	299.9999999999773 	5.350280634046362e-12 	101324.9999999959
0.9972472472472468 	299.9999999999794 	6.102976187821793e-12 	101324.9999999959
0.999749749749749 	299.9999999999777 	5.896601584034661e-12 	101324.9999999958
1.002252252252252 	299.9999999999862 	5.714660043858966e-12 	101324.9999999958
1.004754754754754 	299.9999999999881 	5.519449984397503e-12 	101324.9999999958
1.007257257257256 	299.9999999999769 	5.044466477468252e-12 	101324.999999996
1.009759759759759 	299.9999999999703 	6.507176386586895e-12 	101324.9999999961
1.012262262262261 	299.9999999999774 	5.031755026963847e-12 	101324.9999999963
1.014764764764764 	299.9999999999599 	6.109423269417072e-12 	101324.9999999964
1.017267267267267 	299.9999999999536 	5.739464101235487e-12 	101324.9999999962
1.019769769769769 	299.9999999999862 	6.411255106686444e-12 	101324.9999999961
1.022272272272272 	299.9999999999911 	5.973437171578446e-12 	101324.9999999961
1.024774774774774 	299.9999999999856 	5.868910812386835e-12 	101324.999999996
1.027277277277277 	299.9999999999862 	6.561652711222924e-12 	101324.9999999962
1.029779779779779 	300.0000000000051 	6.412192997492803e-12 	101324.9999999964
1.032282282282282 	300.000000000005 	6.986457645747466e-12 	101324.9999999964
1.034784784784784 	299.9999999999999 	6.080708479980412e-12 	101324.9999999962
1.037287287287286 	299.9999999999821 	5.654883106938406e-12 	101324.999999996
1.039789789789789 	299.9999999999827 	5.23392074281161e-12 	101324.9999999961
1.042292292292291 	300.000000000002 	5.396575350719878e-12 	101324.999999996
1.044794794794794 	300.0000000000105 	5.232643296116285e-12 	101324.9999999959
1.047297297297296 	300.0000000000214 	4.170377716101777e-12 	101324.999999996
1.049799799799799 	299.9999999999914 	5.482992458420353e-12 	101324.9999999958
1.052302302302302 	299.9999999999712 	4.448897287909743e-12 	101324.9999999956
1.054804804804804 	299.9999999999607 	5.453611298905823e-12 	101324.9999999956
1.057307307307306 	299.9999999999541 	4.920873845834231e-12 	101324.9999999955
1.059809809809809 	299.9999999999784 	6.183583206154782e-12 	101324.9999999958
1.062312312312312 	299.9999999999763 	6.158356413516445e-12 	101324.9999999963
1.064814814814814 	299.9999999999726 	7.032934488940501e-12 	101324.9999999965
1.067317317317317 	299.9999999999543 	7.061933687622607e-12 	101324.9999999964
1.069819819819819 	299.9999999999568 	6.921521329804748e-12 	101324.9999999961
1.072322322322321 	299.9999999999967 	7.835755440519763e-12 	101324.999999996
1.074824824824824 	300.000000000003 	6.503940263014831e-12 	101324.999999996
1.077327327327327 	300.0000000000152 	7.670869537447637e-12 	101324.9999999962
1.079829829829829 	300.000000000023 	6.934697525667548e-12 	101324.9999999964
1.082332332332332 	300.000000000005 	7.325230250312697e-12 	101324.9999999967
1.084834834834834 	299.9999999999916 	6.791185847149996e-12 	101324.9999999969
1.087337337337337 	299.9999999999672 	6.881021282079767e-12 	101324.9999999971
1.089839839839839 	299.9999999999587 	7.721513404176763e-12 	101324.9999999972
1.092342342342342 	299.9999999999798 	6.61850029492096e-12 	101324.9999999973
1.094844844844844 	299.9999999999813 	7.16707422279443e-12 	101324.9999999972
1.097347347347347 	299.9999999999669 	6.407480701907057e-12 	101324.9999999971
1.099849849849849 	299.9999999999613 	8.188476450526451e-12 	101324.9999999971
1.102352352352352 	299.9999999999769 	6.511797664335314e-12 	101324.9999999971
1.104854854854854 	299.9999999999907 	7.459441263199591e-12 	101324.9999999974
1.107357357357357 	299.9999999999792 	6.524591984428159e-12 	101324.9999999976
1.109859859859859 	299.9999999999721 	7.806653302836907e-12 	101324.9999999976
1.112362362362362 	300.0000000000116 	7.074747525372888e-12 	101324.9999999976
1.114864864864865 	300.0000000000112 	7.195567595888459e-12 	101324.9999999975
1.117367367367367 	299.9999999999802 	8.164145197424052e-12 	101324.9999999972
1.119869869869869 	299.9999999999574 	7.418679494527621e-12 	101324.9999999971
1.122372372372372 	299.9999999999733 	8.313549818056405e-12 	101324.9999999971
1.124874874874874 	299.9999999999729 	7.530673542046566e-12 	101324.9999999971
1.127377377377377 	299.9999999999852 	8.635610546640667e-12 	101324.9999999973
1.129879879879879 	300.0000000000155 	8.266479832472243e-12 	101324.9999999974
1.132382382382382 	300.0000000000191 	8.394725654715746e-12 	101324.9999999971
1.134884884884884 	300.0000000000045 	7.607517765527814e-12 	101324.999999997
1.137387387387387 	300.0000000000095 	7.127751590582234e-12 	101324.999999997
1.139889889889889 	299.9999999999802 	7.411061749213586e-12 	101324.999999997
1.142392392392392 	299.9999999999726 	6.692097796430616e-12 	101324.9999999974
1.144894894894894 	300.0000000000049 	7.723648769533569e-12 	101324.9999999978
1.147397397397397 	299.999999999996 	7.030339798742772e-12 	101324.9999999978
1.149899899899899 	299.9999999999649 	7.845804449136941e-12 	101324.9999999978
1.152402402402402 	299.9999999999594 	7.620425646951921e-12 	101324.9999999979
1.154904904904904 	299.9999999999804 	8.426725340551423e-12 	101324.9999999978
1.157407407407407 	299.9999999999799 	8.232493404121894e-12 	101324.9999999975
1.159909909909909 	299.9999999999652 	8.610062589235896e-12 	101324.9999999975
1.162412412412412 	299.9999999999618 	1.005967458392267e-11 	101324.9999999975
1.164914914914914 	299.9999999999735 	9.479602500133707e-12 	101324.9999999975
1.167417417417417 	299.999999999977 	1.077836452702448e-11 	101324.9999999976
1.169919919919919 	300.0000000000074 	9.987194641448245e-12 	101324.9999999977
1.172422422422422 	300.0000000000239 	1.015627810052134e-11 	101324.9999999978
1.174924924924925 	299.9999999999953 	8.8658084698917e-12 	101324.9999999978
1.177427427427427 	299.9999999999771 	9.138452891523551e-12 	101324.9999999981
1.179929929929929 	300.0000000000026 	9.780757906241899e-12 	101324.9999999981
1.182432432432432 	300.0000000000153 	8.649794145153762e-12 	101324.9999999982
1.184934934934934 	299.9999999999978 	9.446929053484453e-12 	101324.9999999983
1.187437437437437 	299.9999999999878 	8.806407216128071e-12 	101324.9999999982
1.189939939939939 	299.9999999999807 	9.625772736322388e-12 	101324.9999999982
1.192442442442442 	299.9999999999601 	9.255110177906607e-12 	101324.9999999983
1.194944944944944 	299.9999999999659 	1.001683858320956e-11 	101324.9999999981
1.197447447447447 	299.9999999999953 	9.136347330720651e-12 	101324.9999999981
1.199949949949949 	300.0000000000002 	8.786021484075652e-12 	101324.9999999984
1.202452452452452 	299.9999999999729 	9.343813500358754e-12 	101324.9999999987
1.204954954954955 	299.99999999997 	8.580500210857345e-12 	101324.9999999987
1.207457457457457 	299.999999999987 	9.391927399891359e-12 	101324.9999999987
1.20995995995996 	299.9999999999866 	8.688022671157217e-12 	101324.9999999989
1.212462462462462 	299.9999999999931 	9.328803590063993e-12 	101324.999999999
1.214964964964964 	299.9999999999924 	8.887981669206133e-12 	101324.9999999987
1.217467467467467 	299.9999999999891 	1.011716574910909e-11 	101324.9999999986
1.219969969969969 	299.9999999999825 	9.688932359844012e-12 	101324.9999999987
1.222472472472472 	300.0000000000088 	1.027660350208012e-11 	101324.9999999987
1.224974974974975 	300.0000000000244 	1.078643397254012e-11 	101324.9999999985
1.227477477477477 	299.9999999999991 	9.578248457047468e-12 	101324.9999999985
1.229979979979979 	299.9999999999895 	1.045188460765121e-11 	101324.9999999984
1.232482482482482 	299.999999999974 	9.597989951821514e-12 	101324.9999999985
1.234984984984984 	299.9999999999758 	1.073713632781442e-11 	101324.9999999987
1.237487487487487 	299.9999999999841 	9.607240450495431e-12 	101324.9999999989
1.239989989989989 	299.9999999999826 	9.87865529838844e-12 	101324.9999999992
1.242492492492492 	300.0000000000011 	9.985540858560496e-12 	101324.9999999992
1.244994994994994 	299.9999999999837 	9.0102250488514e-12 	101324.999999999
1.247497497497497 	299.9999999999906 	1.02842584042004e-11 	101324.999999999
1.249999999999999 	300.0000000001138 	9.801966419827428e-12 	101324.9999999991
