-1.25 	300 	0.1034853052095104 	101282.7836037249
-1.247497497497497 	299.9634622367171 	0.1025793056575998 	101283.1476854306
-1.244994994994995 	299.9648939580043 	0.1015396184291338 	101283.5229234903
-1.242492492492492 	299.9652344414318 	0.1007884266981621 	101283.9057386807
-1.23998998998999 	299.9655644515915 	0.0997320823046525 	101284.2965693708
-1.237487487487487 	299.96590126706 	0.09879538218430503 	101284.6946703828
-1.234984984984985 	299.966244051078 	0.09780029596325054 	101285.099803062
-1.232482482482482 	299.966593320259 	0.09678498751784037 	101285.5126004438
-1.22997997997998 	299.966948740553 	0.09575399720474774 	101285.9326690727
-1.227477477477477 	299.9673103653474 	0.09470864808655734 	101286.360072116
-1.224974974974975 	299.9676780986698 	0.09364546771319883 	101286.794695903
-1.222472472472472 	299.9680513595114 	0.09256293669799213 	101287.2358537618
-1.21996996996997 	299.9684306047876 	0.09146000131282839 	101287.6840854694
-1.217467467467467 	299.9688160064009 	0.09034073806186593 	101288.1395940944
-1.214964964964965 	299.9692070235799 	0.08921320499880921 	101288.6017421353
-1.212462462462462 	299.9696034049679 	0.08806770341217576 	101289.0702316855
-1.20995995995996 	299.9700053895771 	0.08690252913859929 	101289.5453448829
-1.207457457457457 	299.9704130011183 	0.08571771830555223 	101290.0271098974
-1.204954954954955 	299.9708262735406 	0.0845170336484076 	101290.5155669492
-1.202452452452452 	299.9712452266224 	0.08330814975677427 	101291.0107404011
-1.19994994994995 	299.9716689694732 	0.08208234372638985 	101291.5115762335
-1.197447447447447 	299.9720977825502 	0.08083860030267367 	101292.0184058774
-1.194944944944945 	299.972532142938 	0.07957724147063377 	101292.5317933557
-1.192442442442442 	299.972971330947 	0.07830250184728542 	101293.0508885013
-1.18993993993994 	299.9734153767683 	0.07702078637363868 	101293.5757282814
-1.187437437437437 	299.9738642547184 	0.07572322456038152 	101294.1062813409
-1.184934934934935 	299.9743177360431 	0.07440880096733499 	101294.6422770171
-1.182432432432432 	299.9747765197976 	0.07307874330814246 	101295.1845413187
-1.17992992992993 	299.9752403378407 	0.07173482652186666 	101295.7327574191
-1.177427427427427 	299.9757080563026 	0.07038011227242191 	101296.2855869359
-1.174924924924925 	299.9761801710939 	0.06901092130570287 	101296.8436149246
-1.172422422422422 	299.976657062537 	0.0676291977298616 	101297.4072890107
-1.16991991991992 	299.977137980455 	0.06623602154236877 	101297.9757232524
-1.167417417417417 	299.9776231676541 	0.06483103858551927 	101298.5492072191
-1.164914914914915 	299.9781127127863 	0.06341478721733887 	101299.1278473872
-1.162412412412412 	299.978605410058 	0.06198688946922559 	101299.7102168224
-1.15990990990991 	299.9791020835507 	0.06054845468481822 	101300.2972862976
-1.157407407407407 	299.9796041233865 	0.05909660145090432 	101300.8906965415
-1.154904904904904 	299.9801095425555 	0.05763230512472146 	101301.4881009759
-1.152402402402403 	299.9806169555809 	0.05615830026759513 	101302.0878679301
-1.1498998998999 	299.9811284374516 	0.05467301895144579 	101302.692453276
-1.147397397397397 	299.9816448879448 	0.05317771927477047 	101303.3029176181
-1.144894894894895 	299.9821644270517 	0.05167531807532937 	101303.9170334317
-1.142392392392392 	299.9826856730049 	0.05016670463689896 	101304.5331651292
-1.13988988988989 	299.9832098296108 	0.04864564801141195 	101305.1527340408
-1.137387387387387 	299.9837390181124 	0.04711187778972088 	101305.7782459645
-1.134884884884885 	299.9842720452961 	0.04557308846727451 	101306.408294184
-1.132382382382382 	299.9848059353818 	0.04402791014409738 	101307.0393659566
-1.12987987987988 	299.9853414559138 	0.04247366324165468 	101307.672370523
-1.127377377377377 	299.985880668304 	0.04090730461849845 	101308.3097447431
-1.124874874874875 	299.9864232454165 	0.03933108845362325 	101308.9511011762
-1.122372372372372 	299.9869694372674 	0.03775216780504617 	101309.5967347194
-1.11986986986987 	299.9875182994369 	0.03616711558154367 	101310.245529729
-1.117367367367367 	299.9880674203154 	0.03457519563700111 	101310.8946343457
-1.114864864864865 	299.9886171176799 	0.03297744539876579 	101311.5444232504
-1.112362362362362 	299.9891688890913 	0.03137813560331214 	101312.196667998
-1.10985985985986 	299.9897234062997 	0.02977616848403582 	101312.8521643257
-1.107357357357357 	299.9902829168836 	0.02815815972474745 	101313.5135663662
-1.104854854854855 	299.9908467856399 	0.02652460329373509 	101314.1801221236
-1.102352352352353 	299.9914114037072 	0.02488325627820563 	101314.8475637151
-1.09984984984985 	299.9919739096924 	0.0232510383154666 	101315.5125092161
-1.097347347347347 	299.9925333194996 	0.02163617030598546 	101316.173799573
-1.094844844844845 	299.993090887863 	0.02002024854490755 	101316.8329197931
-1.092342342342342 	299.9936526353741 	0.01839064625550904 	101317.4969852882
-1.08983983983984 	299.994222099873 	0.01673951064355882 	101318.1701772456
-1.087337337337337 	299.9947981277896 	0.01507096862995152 	101318.8511290843
-1.084834834834835 	299.9953767681171 	0.01339993344060977 	101319.5351694819
-1.082332332332332 	299.995953720568 	0.01173121557664982 	101320.2172159943
-1.07982982982983 	299.9965261546211 	0.01007079583712263 	101320.8939233381
-1.077327327327327 	299.9970946190388 	0.00842241082908147 	101321.565940781
-1.074824824824825 	299.9976594787619 	0.006785646517038606 	101322.2337013928
-1.072322322322323 	299.9982223119682 	0.005154520143225535 	101322.899071882
-1.06981981981982 	299.9987871171174 	0.003517086673793053 	101323.56677869
-1.067317317317317 	299.9993572357185 	0.001865748622742202 	101324.2407715422
-1.064814814814815 	299.9999330797364 	0.0007871984262914928 	101324.9215346463
-1.062312312312312 	300.000511220167 	0.001473463694916203 	101325.6050131757
-1.05980980980981 	300.0010886113855 	0.003145711855003277 	101326.2876082765
-1.057307307307307 	300.0016645933139 	0.004814277665143889 	101326.9685404846
-1.054804804804805 	300.0022393304076 	0.006479285827879427 	101327.6480043258
-1.052302302302302 	300.0028130247587 	0.008141266358544523 	101328.3262387333
-1.0497997997998 	300.0033858046897 	0.009800581506671993 	101329.003395497
-1.047297297297297 	300.0039577207205 	0.01145737940777889 	101329.6795340236
-1.044794794794795 	300.0045287641144 	0.0131116395034952 	101330.3546438186
-1.042292292292292 	300.0050988863663 	0.01476322572559787 	101331.0286679324
-1.03978978978979 	300.0056680150797 	0.01641193115223074 	101331.7015208565
-1.037287287287287 	300.0062360644312 	0.01805750755816363 	101332.3731005215
-1.034784784784785 	300.0068029405654 	0.01969968261773618 	101333.0432956804
-1.032282282282283 	300.007368544545 	0.02133817214215785 	101333.7119901537
-1.02977977977978 	300.0079327755363 	0.02297268583601901 	101334.3790652217
-1.027277277277277 	300.008495533081 	0.0246029291107891 	101335.0444009099
-1.024774774774775 	300.009056715866 	0.0262286066708159 	101335.7078766957
-1.022272272272272 	300.0096162206925 	0.02784942341952201 	101336.3693718892
-1.01976976976977 	300.010173944381 	0.02946508308921834 	101337.0287657966
-1.017267267267267 	300.0107297862548 	0.03107529017535907 	101337.6859378866
-1.014764764764765 	300.0112836466516 	0.03267975059002146 	101338.3407679036
-1.012262262262262 	300.0118354230341 	0.03427817017171841 	101338.9931359414
-1.00975975975976 	300.0123850113671 	0.03587025613959669 	101339.6429225106
-1.007257257257257 	300.0129323109734 	0.03745571718233429 	101340.2900084975
-1.004754754754755 	300.0134772254057 	0.0390342621357421 	101340.93427521
-1.002252252252252 	300.0140196570427 	0.04060560136229955 	101341.5756044592
-0.9997497497497498 	300.0145595026431 	0.04216944708125166 	101342.2138785578
-0.9972472472472473 	300.0150966578682 	0.0437255121893762 	101342.848980418
-0.9947447447447449 	300.0156310250912 	0.04527351135754348 	101343.4807935619
-0.9922422422422421 	300.0161625136656 	0.04681316102981239 	101344.1092020674
-0.9897397397397399 	300.0166910307874 	0.04834417833507104 	101344.7340906187
-0.9872372372372376 	300.0172164743469 	0.04986628245802738 	101345.3553444921
-0.9847347347347346 	300.0177387383205 	0.05137919449303589 	101345.9728496343
-0.9822322322322323 	300.0182577239971 	0.05288263642944697 	101346.5864927487
-0.9797297297297296 	300.0187733445922 	0.05437633256321543 	101347.1961612135
-0.9772272272272275 	300.0192855170071 	0.05586000948267834 	101347.801743159
-0.9747247247247248 	300.0197941490405 	0.05733339459101473 	101348.4031274868
-0.9722222222222224 	300.0202991367394 	0.05879621749634277 	101349.0002037898
-0.9697197197197196 	300.0208003743988 	0.06024821046985769 	101349.5928625113
-0.9672172172172175 	300.0212977673674 	0.06168910699566629 	101350.1809949399
-0.9647147147147147 	300.0217912352555 	0.06311864271177826 	101350.7644931444
-0.9622122122122124 	300.0222807027461 	0.0645365558526413 	101351.3432501288
-0.9597097097097099 	300.0227660865721 	0.06594258630340361 	101351.917159711
-0.9572072072072073 	300.0232472895027 	0.06733647612019156 	101352.486116474
-0.9547047047047047 	300.023724207398 	0.06871796957298067 	101353.0500159583
-0.9522022022022023 	300.0241967407274 	0.07008681278055269 	101353.6087545666
-0.9496996996996998 	300.0246648035227 	0.07144275475494401 	101354.1622296572
-0.9471971971971973 	300.0251283226136 	0.072785546810209 	101354.710339671
-0.9446946946946947 	300.0255872285595 	0.07411494186049157 	101355.2529838344
-0.9421921921921923 	300.0260414463239 	0.07543069616142614 	101355.790062352
-0.93968968968969 	300.0264908897917 	0.07673256874292625 	101356.3214767378
-0.9371871871871872 	300.0269354641432 	0.07802032044078075 	101356.8471295061
-0.9346846846846848 	300.02737507348 	0.07929371525785645 	101357.3669241905
-0.9321821821821823 	300.0278096275891 	0.08055251995860548 	101357.8807654625
-0.9296796796796799 	300.0282390454524 	0.08179650332618238 	101358.3885588796
-0.9271771771771771 	300.0286632549312 	0.08302543740335418 	101358.8902112405
-0.9246746746746748 	300.0290821899335 	0.08423909729697709 	101359.3856307728
-0.9221721721721724 	300.0294957858088 	0.08543726036338231 	101359.8747265693
-0.9196696696696698 	300.0299039747669 	0.08661970712656218 	101360.3574088069
-0.9171671671671672 	300.030306684569 	0.08778622092419829 	101360.8335890673
-0.9146646646646649 	300.0307038384478 	0.08893658769591714 	101361.303179842
-0.9121621621621623 	300.031095357596 	0.09007059670077873 	101361.7660948317
-0.9096596596596597 	300.0314811643389 	0.09118804016097555 	101362.2222493807
-0.9071571571571573 	300.0318611825833 	0.09228871332582286 	101362.6715598233
-0.9046546546546547 	300.032235338589 	0.0933724145919187 	101363.1139435647
-0.9021521521521524 	300.03260356138 	0.09443894504218886 	101363.5493195675
-0.8996496496496498 	300.0329657823616 	0.09548810868210336 	101363.9776077229
-0.8971471471471473 	300.0333219348501 	0.09651971288603316 	101364.3987290512
-0.894644644644645 	300.0336719542914 	0.09753356871958399 	101364.8126066078
-0.892142142142142 	300.0340157778584 	0.09852949091080608 	101365.219164748
-0.8896396396396397 	300.0343533432924 	0.09950729683825064 	101365.6183285987
-0.8871371371371374 	300.0346845895991 	0.1004668068092714 	101366.0100249088
-0.8846346346346349 	300.0350094570613 	0.1014078447109139 	101366.3941817614
-0.8821321321321324 	300.0353278861859 	0.102330237151586 	101366.7707280672
-0.8796296296296297 	300.0356398190982 	0.1032338145470832 	101367.1395946235
-0.8771271271271271 	300.035945199266 	0.1041184119507413 	101367.5007141534
-0.8746246246246248 	300.0362439708474 	0.1049838670631009 	101367.854020151
-0.8721221221221224 	300.03653607898 	0.1058300205494555 	101368.1994474974
-0.8696196196196196 	300.036821470521 	0.1066567180717667 	101368.5369332535
-0.8671171171171175 	300.0371000934559 	0.1074638081487514 	101368.8664155426
-0.8646146146146148 	300.0373718960154 	0.1082511416657425 	101369.1878332661
-0.8621121121121121 	300.0376368283783 	0.1090185737935876 	101369.5011272238
-0.8596096096096097 	300.0378948419233 	0.1097659631297469 	101369.8062398178
-0.857107107107107 	300.0381458884783 	0.1104931712629348 	101370.1031143077
-0.8546046046046049 	300.0383899219352 	0.1112000642182028 	101370.3916957756
-0.8521021021021022 	300.0386268978942 	0.111886513039894 	101370.6719318257
-0.8495995995995997 	300.0388567732499 	0.1125523928828772 	101370.9437714635
-0.8470970970970974 	300.03907950553 	0.1131975811988938 	101371.2071643359
-0.8445945945945946 	300.0392950535517 	0.1138219586064146 	101371.462061721
-0.8420920920920922 	300.0395033782465 	0.1144254111722147 	101371.7084172031
-0.8395895895895897 	300.039704441043 	0.1150078280912731 	101371.9461854467
-0.8370870870870872 	300.0398982042929 	0.1155691003505113 	101372.1753217291
-0.8345845845845846 	300.0400846325886 	0.1161091254811967 	101372.3957840877
-0.8320820820820823 	300.0402636927911 	0.1166278068236382 	101372.6075334477
-0.8295795795795798 	300.0404353515418 	0.1171250470437179 	101372.8105300904
-0.8270770770770772 	300.0405995750879 	0.1176007506281781 	101373.0047342098
-0.8245745745745746 	300.040756333956 	0.1180548316363902 	101373.1901109012
-0.8220720720720721 	300.0409056010806 	0.1184872092527593 	101373.3666280901
-0.8195695695695699 	300.0410473466399 	0.1188977990186264 	101373.5342505079
-0.817067067067067 	300.0411815423348 	0.1192865214716263 	101373.6929446557
-0.8145645645645651 	300.0413081670778 	0.1196533124390082 	101373.8426856134
-0.8120620620620621 	300.0414271996568 	0.1199981075768959 	101373.9834480953
-0.8095595595595597 	300.0415386124047 	0.1203208318403417 	101374.1151995062
-0.8070570570570572 	300.0416423830718 	0.1206214235645816 	101374.2379136248
-0.8045545545545546 	300.0417385001434 	0.1208998419360498 	101374.3515765459
-0.8020520520520523 	300.0418269457879 	0.1211560336694496 	101374.4561672849
-0.7995495495495494 	300.0419076932025 	0.1213899306488085 	101374.5516540862
-0.7970470470470474 	300.04198072838 	0.1216014931490186 	101374.6380204472
-0.7945445445445446 	300.0420460505102 	0.1217907064684782 	101374.7152653908
-0.7920420420420423 	300.0421036437061 	0.1219575258209525 	101374.783370012
-0.7895395395395397 	300.0421534807211 	0.122101888111479 	101374.8423022109
-0.7870370370370371 	300.0421955591424 	0.1222237824494392 	101374.8920590336
-0.7845345345345348 	300.0422298920373 	0.122323227598068 	101374.9326559437
-0.7820320320320323 	300.042256463261 	0.1224001821880081 	101374.9640738457
-0.7795295295295296 	300.0422752418502 	0.1224545798895838 	101374.9862761431
-0.7770270270270272 	300.0422862373601 	0.1224864402174872 	101374.9992741341
-0.7745245245245247 	300.0422894802041 	0.1224958198116111 	101375.0031031854
-0.7720220220220222 	300.0422849506142 	0.1224826734003675 	101374.9977404993
-0.7695195195195199 	300.0422726054179 	0.1224469171458891 	101374.9831360374
-0.767017017017017 	300.0422524686242 	0.1223886056147888 	101374.9593169104
-0.7645145145145147 	300.0422245977491 	0.1223078605732746 	101374.9263511103
-0.7620120120120122 	300.0421889766561 	0.1222046466609109 	101374.8842198097
-0.7595095095095097 	300.0421455430836 	0.1220788393770313 	101374.832849451
-0.7570070070070072 	300.0420943231696 	0.1219305070464621 	101374.7722710126
-0.7545045045045048 	300.0420354139692 	0.1217598594814617 	101374.7025992278
-0.7520020020020022 	300.0419688161304 	0.121566894888094 	101374.6238348574
-0.7494994994994997 	300.0418944305401 	0.1213514106800005 	101374.5358604197
-0.7469969969969972 	300.0418122608373 	0.1211134383972822 	101374.4386805541
-0.7444944944944945 	300.041722456593 	0.1208533139964872 	101374.3324724038
-0.7419919919919924 	300.0416250758497 	0.1205711589773337 	101374.2173044593
-0.7394894894894897 	300.0415199797484 	0.1202666766818037 	101374.0930123539
-0.7369869869869872 	300.041407094413 	0.1199397358811494 	101373.9595085578
-0.7344844844844846 	300.0412866062276 	0.119590773470432 	101373.8170137572
-0.7319819819819822 	300.0411587018019 	0.1192202005148482 	101373.665748649
-0.7294794794794797 	300.0410232532075 	0.1188277324804757 	101373.5055622566
-0.7269769769769773 	300.0408800308265 	0.1184128898991464 	101373.3361829952
-0.7244744744744747 	300.0407291527387 	0.1179759809616637 	101373.1577504788
-0.721971971971972 	300.0405709927916 	0.1175178542198157 	101372.9707064754
-0.7194694694694695 	300.040405607207 	0.1170386178596 	101372.7751172019
-0.7169669669669674 	300.0402326148527 	0.1165374225033993 	101372.5705324991
-0.7144644644644647 	300.0400518313919 	0.1160139081411879 	101372.3567349769
-0.711961961961962 	300.039863689892 	0.1154691047202261 	101372.1342370392
-0.7094594594594597 	300.0396686812336 	0.1149041179520752 	101371.9036185185
-0.7069569569569573 	300.0394665861713 	0.1143184185606169 	101371.6646192041
-0.7044544544544545 	300.0392567543389 	0.1137105499062102 	101371.4164701415
-0.7019519519519523 	300.0390391566877 	0.1130805352770896 	101371.1591381618
-0.6994494494494495 	300.0388146234788 	0.1124303423388332 	101370.8936058959
-0.6969469469469471 	300.0385837388845 	0.111761289720884 	101370.6205637158
-0.6944444444444446 	300.0383459225638 	0.1110719870261725 	101370.3393245318
-0.6919419419419421 	300.0381001758459 	0.1103601541162312 	101370.0487070258
-0.6894394394394396 	300.0378466153313 	0.1096261785398715 	101369.7488498462
-0.6869369369369374 	300.0375865819765 	0.1088732612073317 	101369.441338752
-0.6844344344344344 	300.0373209271126 	0.1081033468649498 	101369.1271802412
-0.6819319319319321 	300.0370487277913 	0.1073141869483609 	101368.8052828303
-0.6794294294294296 	300.0367683739099 	0.1065020217237414 	101368.4737432818
-0.6769269269269272 	300.0364798268413 	0.1056669181949865 	101368.1325172564
-0.6744244244244245 	300.0361850282228 	0.1048136051119014 	101367.7839006692
-0.6719219219219222 	300.0358856188412 	0.1039459443174371 	101367.4298320819
-0.6694194194194195 	300.0355807143031 	0.1030616853657949 	101367.0692635941
-0.6669169169169172 	300.0352677434493 	0.1021546375953563 	101366.6991551072
-0.6644144144144146 	300.0349456496006 	0.1012224218723981 	101366.3182597098
-0.661911911911912 	300.0346165862854 	0.1002704360235395 	101365.9291261275
-0.6594094094094097 	300.0342837402854 	0.09930642868329556 	101365.5355225752
-0.656906906906907 	300.0339475548488 	0.09833132291525976 	101365.1379710333
-0.6544044044044046 	300.0336048453424 	0.09733721984241393 	101364.7327040554
-0.6519019019019021 	300.0332522130279 	0.09631588540673842 	101364.3157037888
-0.6493993993993996 	300.0328901468866 	0.09526876742226492 	101363.8875508428
-0.6468968968968971 	300.0325230631855 	0.09420691511583251 	101363.4534680668
-0.6443943943943946 	300.032154822839 	0.09313980001499794 	101363.0180184154
-0.6418918918918921 	300.0317843719782 	0.09206459205259099 	101362.5799521456
-0.6393893893893897 	300.0314063679826 	0.09096789543516678 	101362.1329511702
-0.6368868868868871 	300.0310165469388 	0.08983922355655151 	101361.6719769615
-0.6343843843843846 	300.0306164817251 	0.08868280541817358 	101361.1988939683
-0.6318818818818821 	300.0302126729082 	0.08751512931900274 	101360.7213906742
-0.6293793793793795 	300.0298104780671 	0.08634959078672755 	101360.2457991072
-0.6268768768768773 	300.0294086637847 	0.0851828300820454 	101359.7706551251
-0.6243743743743745 	300.0289999525575 	0.08399646115257126 	101359.2874391011
-0.6218718718718721 	300.0285777597255 	0.08277355952334463 	101358.7882194849
-0.6193693693693696 	300.0281423973353 	0.08151512813127137 	101358.2733285528
-0.6168668668668671 	300.0277014446111 	0.08024110055131849 	101357.7518911562
-0.6143643643643645 	300.027263761241 	0.07897409435319319 	101357.2343509934
-0.6118618618618621 	300.0268315998983 	0.07771963137015175 	101356.7233399095
-0.6093593593593596 	300.0263981901768 	0.07646005599991597 	101356.2108480109
-0.6068568568568571 	300.0259529329692 	0.07516796976201658 	101355.6843435223
-0.6043543543543546 	300.0254900525395 	0.07382862610535447 	101355.1370027826
-0.6018518518518521 	300.0250137325702 	0.07245317108110533 	101354.5737788447
-0.5993493493493496 	300.0245354926421 	0.07107174397330115 	101354.008294677
-0.5968468468468471 	300.0240656862253 	0.0697113114307779 	101353.4527880598
-0.5943443443443446 	300.0236055830901 	0.06837500627098644 	101352.9087531612
-0.591841841841842 	300.0231459964062 	0.06703854824953862 	101352.3653225011
-0.5893393393393397 	300.0226734880523 	0.06566656684807613 	101351.8066076267
-0.5868368368368371 	300.0221797631985 	0.06423735506432225 	101351.2228072153
-0.5843343343343346 	300.0216677380628 	0.06275885928270383 	101350.6173773376
-0.5818318318318321 	300.0211501293551 	0.06126492555127953 	101350.0053580285
-0.5793293293293297 	300.0206415040692 	0.05979425289301143 	101349.4039705644
-0.5768268268268271 	300.0201490339096 	0.05836584250643283 	101348.8216869831
-0.5743243243243245 	300.0196678379947 	0.05696653373605302 	101348.2527285414
-0.5718218218218221 	300.0191836436174 	0.05555803976850619 	101347.6802162667
-0.5693193193193196 	300.0186809762586 	0.05409887350646527 	101347.0858565039
-0.5668168168168171 	300.0181520446933 	0.05256822840762871 	101346.4604452017
-0.5643143143143147 	300.0176013542324 	0.05097840688959086 	101345.8093174351
-0.5618118118118121 	300.017043616484 	0.04936922665082371 	101345.1498718265
-0.5593093093093094 	300.0164962482402 	0.04778784134480425 	101344.5026995638
-0.5568068068068072 	300.0159705808655 	0.04626497676415393 	101343.8811912146
-0.5543043043043046 	300.0154662819363 	0.04479969781234846 	101343.2849450305
-0.551801801801802 	300.0149714767574 	0.04335957869533768 	101342.6999150207
-0.5492992992992995 	300.0144681112951 	0.04189523308086339 	101342.104753995
-0.5467967967967969 	300.0139398392873 	0.04036190319086158 	101341.4801399246
-0.5442942942942947 	300.0133789797744 	0.03873859290504489 	101340.8169994609
-0.5417917917917919 	300.0127897798224 	0.03703707906520977 	101340.120362406
-0.5392892892892895 	300.0121868727949 	0.03529773062739588 	101339.4075353291
-0.536786786786787 	300.011589786529 	0.03357448168528914 	101338.7016066182
-0.5342842842842846 	300.0110158702184 	0.03191539552835716 	101338.0230840646
-0.531781781781782 	300.010474402005 	0.03034628334381806 	101337.3829297267
-0.5292792792792794 	300.0099637422181 	0.02886265256125359 	101336.7791970341
-0.526776776776777 	300.0094720761278 	0.02743159911408858 	101336.1979115693
-0.5242742742742745 	300.0089810581187 	0.02600179349082191 	101335.6173809265
-0.521771771771772 	300.0084708556163 	0.02451757200665954 	101335.0141588016
-0.5192692692692695 	300.0079251075456 	0.02293292402825449 	101334.3689065534
-0.516766766766767 	300.0073346831068 	0.02122215121553937 	101333.6708353895
-0.5142642642642645 	300.0066995888375 	0.0193853089222431 	101332.9199605102
-0.511761761761762 	300.0060288484195 	0.01744790624673045 	101332.1269564106
-0.5092592592592596 	300.0053385949844 	0.01545555960763302 	101331.3109007372
-0.506756756756757 	300.0046489547325 	0.01346525215116872 	101330.4955892065
-0.5042542542542544 	300.0039805186077 	0.0115355224566982 	101329.7053638296
-0.5017517517517521 	300.0033513710739 	0.009718166365272179 	101328.9616016653
-0.4992492492492494 	300.0027753594629 	0.00805311332655915 	101328.2806693086
-0.496746746746747 	300.0022614606578 	0.006566434959607543 	101327.6731750801
-0.4942442442442445 	300.0018139117095 	0.005270624261664543 	101327.1441240164
-0.4917417417417421 	300.0014328378598 	0.004166337869227798 	101326.6936607476
-0.4892392392392395 	300.0011151466014 	0.003244926661185562 	101326.31812677
-0.486736736736737 	300.0008554987282 	0.002491208313248904 	101326.0112083371
-0.4842342342342345 	300.0006472208924 	0.001886088229823091 	101325.7650152497
-0.481731731731732 	300.000483078481 	0.001408788917786767 	101325.5709940755
-0.4792292292292296 	300.0003558708521 	0.001038577471092035 	101325.4206326012
-0.4767267267267268 	300.000258848511 	0.0007559784821342555 	101325.3059518397
-0.4742242242242246 	300.0001859679107 	0.0005435222942347876 	101325.2198073488
-0.471721721721722 	300.0001320141891 	0.0003861126662326794 	101325.1560349733
-0.4692192192192195 	300.0000926269283 	0.0002711082115274549 	101325.1094802248
-0.4667167167167169 	300.0000642573651 	0.0001882082801271801 	101325.0759484637
-0.4642142142142145 	300.0000440866878 	0.0001292201823716565 	101325.0521074893
-0.461711711711712 	300.0000299233945 	8.776854463362896e-05 	101325.0353671869
-0.4592092092092094 	300.0000200977844 	5.899010663521519e-05 	101325.0237539045
-0.456706706706707 	300.0000133607184 	3.924281128258101e-05 	101325.015791102
-0.4542042042042045 	300.000008793268 	2.584548895011379e-05 	101325.0103928811
-0.451701701701702 	300.0000057308654 	1.685586883762862e-05 	101325.0067733486
-0.4491991991991995 	300.0000036993449 	1.088809710941724e-05 	101325.0043722772
-0.4466966966966969 	300.0000023656474 	6.967484483128688e-06 	101325.0027959987
-0.4441941941941945 	300.0000014990023 	4.417805853505104e-06 	101325.0017716389
-0.441691691691692 	300.0000009412636 	2.776037233149071e-06 	101325.0011125059
-0.4391891891891895 	300.0000005858943 	1.729043716570288e-06 	101325.0006924595
-0.436686686686687 	300.0000003615136 	1.067643466025668e-06 	101325.0004272913
-0.4341841841841846 	300.0000002212082 	6.536548840797045e-07 	101325.0002614327
-0.431681681681682 	300.0000001341656 	3.968742909778386e-07 	101325.0001586232
-0.4291791791791794 	300.0000000806693 	2.389927907557149e-07 	101325.000095457
-0.426676676676677 	300.0000000481231 	1.427688360129763e-07 	101325.0000569824
-0.4241741741741744 	300.0000000285215 	8.460987475670797e-08 	101325.0000337454
-0.421671671671672 	300.0000000167932 	4.975881463392392e-08 	101325.0000198279
-0.4191691691691694 	300.0000000098468 	2.903699674995388e-08 	101325.0000115598
-0.4166666666666669 	300.0000000057336 	1.682148505399945e-08 	101325.0000066875
-0.4141641641641645 	300.0000000031775 	9.670144619233272e-09 	101325.0000038384
-0.411661661661662 	300.0000000018659 	5.520924920531209e-09 	101325.0000021854
-0.4091591591591594 	300.0000000010521 	3.127588255927948e-09 	101325.0000012334
-0.406656656656657 	300.0000000005136 	1.761123171050686e-09 	101325.0000006892
-0.4041541541541545 	300.000000000347 	9.819320099080326e-10 	101325.0000003803
-0.401651651651652 	300.0000000000913 	5.473461989812149e-10 	101325.0000002063
-0.3991491491491494 	300.0000000000968 	2.984285072170644e-10 	101325.0000001091
-0.396646646646647 	300.0000000000005 	1.672765163995028e-10 	101325.000000055
-0.3941441441441444 	300.0000000000009 	8.740708004729686e-11 	101325.0000000254
-0.3916416416416419 	299.9999999999371 	5.07754883188574e-11 	101325.0000000092
-0.3891391391391395 	299.9999999999622 	2.455007638003844e-11 	101325.0000000005
-0.3866366366366368 	299.9999999999552 	1.556810410921344e-11 	101324.9999999958
-0.3841341341341344 	299.9999999999996 	7.894231425532913e-12 	101324.9999999935
-0.381631631631632 	299.9999999999452 	5.818201797386382e-12 	101324.9999999919
-0.3791291291291294 	300.0000000000067 	2.685691094165582e-12 	101324.999999991
-0.3766266266266269 	300.0000000000258 	1.99135627356062e-12 	101324.9999999903
-0.3741241241241244 	300.0000000000276 	2.114609382710493e-12 	101324.99999999
-0.371621621621622 	300.0000000000127 	5.335577960589359e-13 	101324.9999999898
-0.3691191191191194 	300.0000000000014 	3.23852182846191e-12 	101324.9999999899
-0.366616616616617 	300.0000000000072 	9.07079359103162e-13 	101324.9999999901
-0.3641141141141143 	299.9999999999579 	2.64032588465663e-12 	101324.9999999902
-0.3616116116116119 	299.9999999999373 	1.090736384337239e-12 	101324.9999999901
-0.3591091091091095 	299.9999999999862 	1.275718057968129e-12 	101324.9999999901
-0.356606606606607 	299.9999999999744 	4.365798695959048e-13 	101324.99999999
-0.3541041041041044 	299.999999999981 	5.085656831872001e-13 	101324.9999999899
-0.3516016016016019 	300.0000000000015 	9.453527866527518e-13 	101324.99999999
-0.3490990990990994 	299.9999999999833 	7.99939415015032e-13 	101324.9999999899
-0.346596596596597 	300.0000000000531 	2.309011039672424e-12 	101324.9999999902
-0.3440940940940944 	300.0000000000646 	5.968916015991107e-13 	101324.9999999905
-0.3415915915915919 	300.0000000000194 	3.702345606933688e-12 	101324.9999999904
-0.3390890890890895 	299.9999999999767 	2.227945493689331e-12 	101324.9999999903
-0.3365865865865869 	300.0000000000235 	4.386130862425139e-12 	101324.9999999907
-0.3340840840840844 	300.0000000000101 	3.059427696057234e-12 	101324.999999991
-0.3315815815815819 	300.0000000000307 	3.857034884421294e-12 	101324.9999999908
-0.3290790790790794 	300.0000000000159 	2.173039920260476e-12 	101324.9999999907
-0.3265765765765769 	299.9999999999159 	2.978681494364393e-12 	101324.9999999908
-0.3240740740740744 	299.9999999999948 	1.106112406347164e-12 	101324.9999999906
-0.3215715715715718 	300.0000000000056 	3.771953176635979e-12 	101324.9999999906
-0.3190690690690695 	299.9999999999161 	1.813862919392982e-12 	101324.9999999907
-0.3165665665665668 	299.9999999999888 	5.287946318968055e-12 	101324.999999991
-0.3140640640640644 	300.0000000000044 	1.945752691639692e-12 	101324.9999999907
-0.311561561561562 	299.9999999999143 	5.347278218655531e-12 	101324.999999991
-0.3090590590590593 	299.999999999994 	1.804742996648912e-12 	101324.9999999911
-0.3065565565565568 	300.0000000000032 	5.385571437608979e-12 	101324.9999999912
-0.3040540540540545 	300.0000000000228 	2.456564343948164e-12 	101324.9999999909
-0.3015515515515518 	300.0000000000432 	5.339076768174029e-12 	101324.9999999909
-0.2990490490490494 	299.9999999999383 	1.104249747388941e-12 	101324.9999999909
-0.2965465465465469 	299.9999999999794 	4.506251692730882e-12 	101324.9999999909
-0.2940440440440444 	299.999999999999 	2.54265205777136e-12 	101324.999999991
-0.2915415415415418 	299.9999999999985 	3.366927172140367e-12 	101324.9999999911
-0.2890390390390395 	299.999999999999 	2.497888279900352e-12 	101324.9999999912
-0.2865365365365368 	299.9999999999723 	1.967470816700737e-12 	101324.9999999911
-0.2840340340340343 	299.9999999999991 	3.088528681336494e-12 	101324.9999999915
-0.2815315315315318 	299.9999999999167 	1.205598947436888e-12 	101324.9999999914
-0.2790290290290295 	299.9999999999503 	2.030934710001516e-12 	101324.9999999916
-0.2765265265265269 	300.0000000000122 	9.869332573292572e-13 	101324.9999999916
-0.2740240240240244 	300.000000000037 	1.403303232253868e-12 	101324.9999999915
-0.2715215215215219 	300.0000000000205 	1.743692017646726e-12 	101324.9999999914
-0.2690190190190194 	299.9999999999364 	1.04563248007837e-12 	101324.9999999912
-0.2665165165165169 	299.9999999999945 	2.028553565702304e-12 	101324.999999991
-0.2640140140140144 	299.9999999999577 	1.542263630140821e-12 	101324.9999999906
-0.2615115115115119 	300.0000000000003 	3.199077610266307e-12 	101324.9999999906
-0.2590090090090094 	299.9999999999234 	1.626778157832982e-12 	101324.9999999902
-0.2565065065065068 	299.9999999999951 	1.794277595173024e-12 	101324.9999999901
-0.2540040040040044 	300.0000000000026 	2.025511057779112e-12 	101324.9999999903
-0.2515015015015019 	300.0000000000456 	1.551030509471037e-12 	101324.99999999
-0.2489989989989994 	300.0000000000554 	3.788638264121161e-12 	101324.9999999899
-0.2464964964964968 	299.9999999999923 	1.060012635278092e-12 	101324.9999999899
-0.2439939939939944 	299.999999999998 	5.480418333668404e-12 	101324.9999999898
-0.2414914914914919 	299.9999999999695 	2.113413068197466e-12 	101324.99999999
-0.2389889889889893 	300.0000000000025 	7.308669616340397e-12 	101324.9999999903
-0.2364864864864869 	300.0000000000246 	3.589207960705211e-12 	101324.9999999904
-0.2339839839839843 	299.9999999999119 	7.780774519864418e-12 	101324.9999999903
-0.2314814814814819 	299.9999999999766 	3.126862873389875e-12 	101324.9999999903
-0.2289789789789792 	299.9999999999128 	6.784645312119851e-12 	101324.9999999904
-0.2264764764764769 	299.9999999999374 	3.858605691455624e-12 	101324.9999999904
-0.2239739739739743 	299.9999999999521 	5.282239943394312e-12 	101324.9999999905
-0.2214714714714718 	299.9999999999326 	3.376542759223544e-12 	101324.9999999906
-0.2189689689689693 	299.9999999999657 	3.311518278079557e-12 	101324.9999999909
-0.2164664664664669 	299.9999999999759 	3.821552292775907e-12 	101324.9999999906
-0.2139639639639643 	299.9999999999154 	2.851647249446456e-12 	101324.9999999906
-0.2114614614614618 	299.9999999999697 	4.255300403142689e-12 	101324.9999999905
-0.2089589589589593 	299.9999999999935 	4.976396403678951e-12 	101324.9999999907
-0.2064564564564568 	299.9999999999923 	4.814718333031156e-12 	101324.9999999904
-0.2039539539539543 	299.9999999998946 	6.35248608546412e-12 	101324.9999999902
-0.2014514514514518 	299.9999999999438 	4.295850755843393e-12 	101324.9999999902
-0.1989489489489494 	299.9999999999736 	6.496255278498427e-12 	101324.9999999903
-0.1964464464464468 	299.9999999999992 	2.454052623493595e-12 	101324.9999999901
-0.1939439439439443 	299.9999999999857 	5.740669080557208e-12 	101324.99999999
-0.1914414414414418 	299.9999999999027 	3.245457315599203e-12 	101324.99999999
-0.1889389389389393 	300.0000000000069 	5.352244437212933e-12 	101324.9999999903
-0.1864364364364368 	300.0000000000487 	4.0451066179344e-12 	101324.9999999907
-0.1839339339339343 	299.999999999967 	6.522691656182661e-12 	101324.9999999905
-0.1814314314314318 	299.9999999999923 	4.340044809350634e-12 	101324.9999999905
-0.1789289289289293 	299.999999999891 	6.831581559049225e-12 	101324.9999999904
-0.1764264264264268 	299.9999999999777 	3.14361732628322e-12 	101324.9999999904
-0.1739239239239243 	299.9999999998841 	6.319551197773092e-12 	101324.9999999905
-0.1714214214214218 	299.9999999999873 	6.15928228549319e-13 	101324.9999999904
-0.1689189189189193 	299.9999999999484 	5.924770046230504e-12 	101324.9999999906
-0.1664164164164168 	300.0000000000094 	1.88868654383372e-12 	101324.9999999904
-0.1639139139139143 	299.9999999999883 	6.926534343223434e-12 	101324.9999999903
-0.1614114114114118 	300.0000000000364 	3.014991566965469e-12 	101324.99999999
-0.1589089089089093 	299.9999999999963 	8.798718215342765e-12 	101324.99999999
-0.1564064064064068 	299.9999999999843 	4.69863965532281e-12 	101324.99999999
-0.1539039039039043 	299.9999999999919 	9.355247869205606e-12 	101324.9999999903
-0.1514014014014018 	300.0000000000321 	3.665106577793212e-12 	101324.9999999902
-0.1488988988988993 	299.9999999999902 	8.701403619355852e-12 	101324.9999999904
-0.1463963963963968 	299.9999999999984 	2.066224691530886e-12 	101324.9999999904
-0.1438938938938943 	299.9999999999407 	7.997517948861271e-12 	101324.9999999899
-0.1413913913913918 	299.9999999999134 	9.165105616974343e-13 	101324.99999999
-0.1388888888888893 	299.999999999976 	5.998588205142308e-12 	101324.9999999898
-0.1363863863863868 	299.9999999998753 	4.59695867003984e-13 	101324.9999999899
-0.1338838838838843 	299.9999999999031 	3.474664430215336e-12 	101324.9999999901
-0.1313813813813818 	299.9999999999963 	1.161229192105253e-12 	101324.9999999904
-0.1288788788788793 	299.9999999999652 	2.523185350645834e-12 	101324.9999999905
-0.1263763763763768 	299.9999999999683 	1.246700291619628e-12 	101324.9999999907
-0.1238738738738743 	299.9999999999109 	3.041209392886826e-12 	101324.9999999906
-0.1213713713713717 	299.999999999974 	1.890626354987725e-12 	101324.9999999903
-0.1188688688688693 	300.0000000000067 	3.248636021874622e-12 	101324.9999999904
-0.1163663663663668 	299.9999999998923 	2.558464965362237e-12 	101324.9999999903
-0.1138638638638643 	299.9999999999873 	3.331973242669772e-12 	101324.9999999905
-0.1113613613613618 	299.999999999981 	2.40360204777814e-12 	101324.9999999905
-0.1088588588588592 	299.9999999999703 	4.969232266000453e-12 	101324.9999999905
-0.1063563563563568 	299.9999999999408 	1.53473863967656e-12 	101324.9999999903
-0.1038538538538543 	299.9999999999698 	4.095723198510533e-12 	101324.9999999899
-0.1013513513513517 	300.0000000000169 	3.873910049608801e-13 	101324.9999999895
-0.09884884884884926 	299.9999999999271 	4.19444989460393e-12 	101324.9999999897
-0.09634634634634676 	299.9999999998789 	1.059899072219452e-12 	101324.9999999897
-0.09384384384384425 	299.999999999921 	3.634706248546187e-12 	101324.9999999897
-0.09134134134134177 	300.000000000029 	8.780716919823358e-13 	101324.9999999897
-0.08883883883883925 	300.0000000000081 	3.04341406416352e-12 	101324.9999999897
-0.08633633633633674 	299.9999999999468 	1.862130471795198e-12 	101324.9999999896
-0.08383383383383426 	300.0000000000107 	2.46172745830645e-12 	101324.9999999896
-0.08133133133133173 	299.9999999999544 	2.395485492696635e-12 	101324.9999999897
-0.07882882882882926 	299.9999999998691 	2.70757073455273e-12 	101324.9999999897
-0.07632632632632676 	299.9999999999513 	2.075581634700415e-12 	101324.9999999899
-0.07382382382382424 	299.9999999998803 	1.884692127508139e-12 	101324.9999999897
-0.07132132132132173 	300.0000000000158 	1.592346663281642e-12 	101324.9999999897
-0.06881881881881925 	299.9999999999604 	2.187624793564276e-12 	101324.9999999897
-0.06631631631631671 	299.9999999998826 	2.026171896546313e-12 	101324.9999999897
-0.06381381381381425 	299.9999999999461 	1.867457321462098e-12 	101324.9999999899
-0.06131131131131173 	299.9999999999479 	1.767641650386893e-12 	101324.9999999897
-0.05880880880880923 	299.9999999998988 	1.587493502627441e-12 	101324.9999999896
-0.05630630630630672 	299.9999999999651 	1.431363274071716e-12 	101324.9999999897
-0.05380380380380424 	300.0000000000185 	1.044589680983136e-12 	101324.9999999896
-0.05130130130130173 	300.0000000000156 	3.172509224544291e-13 	101324.9999999897
-0.04879879879879922 	299.999999999933 	5.636970685965995e-13 	101324.9999999899
-0.04629629629629672 	299.9999999999183 	6.443738119104177e-13 	101324.9999999901
-0.04379379379379422 	299.999999999904 	1.667524875926822e-12 	101324.9999999899
-0.04129129129129173 	299.9999999999814 	1.967352227287395e-12 	101324.9999999897
-0.03878878878878922 	299.9999999999827 	2.454791489144151e-12 	101324.9999999894
-0.03628628628628671 	299.999999999982 	1.35130634963929e-12 	101324.9999999893
-0.03378378378378422 	299.9999999999089 	1.984315668628832e-12 	101324.9999999893
-0.03128128128128172 	299.9999999999559 	1.159054592792998e-12 	101324.9999999895
-0.02877877877877922 	299.9999999999546 	1.944853673404721e-12 	101324.9999999896
-0.0262762762762767 	299.9999999998843 	1.544347971802394e-12 	101324.9999999901
-0.02377377377377422 	300.0000000000238 	1.557430927619928e-12 	101324.9999999903
-0.0212712712712717 	299.9999999998875 	1.039040309045556e-12 	101324.9999999905
-0.01876876876876921 	299.9999999999568 	7.13073599891747e-14 	101324.9999999904
-0.01626626626626671 	300.0000000000166 	7.180089392571075e-13 	101324.9999999904
-0.0137637637637642 	299.9999999999624 	1.058292748292859e-12 	101324.9999999903
-0.0112612612612617 	300.0000000000226 	8.84344718785656e-13 	101324.9999999903
-0.008758758758759198 	299.9999999999974 	8.920320414216915e-13 	101324.9999999903
-0.006256256256256697 	299.9999999998676 	5.052658418990258e-13 	101324.9999999901
-0.003753753753754195 	299.9999999999498 	9.835889489176227e-13 	101324.9999999903
-0.001251251251251693 	299.9999999999208 	7.119194661305536e-13 	101324.9999999899
0.00125125125125081 	299.9999999999433 	1.00790868784943e-12 	101324.9999999903
0.003753753753753312 	299.9999999999528 	3.992808765992449e-13 	101324.9999999904
0.006256256256255817 	299.9999999998741 	9.416825005002396e-13 	101324.9999999903
0.008758758758758317 	299.9999999999802 	6.781178526775526e-13 	101324.9999999903
0.01126126126126082 	300.0000000000021 	6.140590948713562e-13 	101324.9999999905
0.01376376376376332 	299.9999999999677 	5.74590859616932e-13 	101324.9999999906
0.01626626626626582 	300.0000000000148 	4.171925028764655e-13 	101324.9999999905
0.01876876876876833 	299.9999999999498 	5.666820684510793e-13 	101324.9999999906
0.02127127127127083 	299.9999999999658 	8.825839399898973e-13 	101324.9999999908
0.02377377377377332 	299.9999999999948 	1.157071575900916e-12 	101324.9999999906
0.02627627627627583 	299.999999999883 	9.962386592004646e-13 	101324.9999999903
0.02877877877877833 	300.0000000000069 	1.265412078316189e-12 	101324.9999999901
0.03128128128128083 	299.9999999999401 	7.509998249699981e-13 	101324.99999999
0.03378378378378333 	299.9999999998845 	1.308236319117225e-12 	101324.9999999898
0.03628628628628584 	299.9999999999635 	1.495107257324504e-12 	101324.9999999899
0.03878878878878834 	299.999999999979 	1.444750868432893e-12 	101324.9999999901
0.04129129129129084 	299.9999999999745 	1.254484131299182e-12 	101324.9999999905
0.04379379379379333 	299.9999999999443 	1.16823985919007e-12 	101324.9999999905
0.04629629629629585 	299.9999999998711 	1.237969260939736e-12 	101324.9999999903
0.04879879879879834 	299.9999999999483 	1.900584603104582e-12 	101324.9999999905
0.05130130130130085 	300.0000000000103 	1.81370068929631e-12 	101324.9999999903
0.05380380380380335 	300.0000000000264 	2.163816413308378e-12 	101324.9999999905
0.05630630630630584 	299.9999999999948 	2.766052625869261e-12 	101324.9999999907
0.05880880880880836 	299.9999999999092 	3.369012251232857e-12 	101324.9999999906
0.06131131131131085 	299.9999999999623 	3.146235389583692e-12 	101324.9999999904
0.06381381381381336 	299.9999999999566 	2.935935842221951e-12 	101324.9999999902
0.06631631631631586 	299.9999999998755 	2.373485421757377e-12 	101324.9999999903
0.06881881881881835 	299.9999999999488 	2.324208967048913e-12 	101324.9999999901
0.07132132132132088 	299.999999999979 	5.927543513572318e-13 	101324.9999999904
0.07382382382382337 	299.9999999998819 	6.939785682649424e-13 	101324.9999999906
0.07632632632632587 	299.9999999999656 	4.420478185399631e-13 	101324.9999999909
0.07882882882882837 	299.9999999999306 	1.009965072558732e-12 	101324.999999991
0.08133133133133086 	299.9999999999779 	1.041924858512656e-12 	101324.999999991
0.08383383383383337 	299.9999999999791 	6.633338372363021e-13 	101324.9999999908
0.08633633633633589 	299.9999999998865 	6.147802984478007e-13 	101324.9999999905
0.08883883883883838 	300.0000000000059 	9.974006205953353e-13 	101324.9999999904
0.09134134134134086 	299.999999999976 	1.021895576599658e-13 	101324.9999999902
0.09384384384384339 	299.9999999998731 	4.224953605905903e-13 	101324.9999999901
0.09634634634634588 	299.9999999999576 	6.133356837820861e-13 	101324.9999999899
0.09884884884884838 	299.9999999999742 	8.053927003772692e-13 	101324.9999999897
0.1013513513513509 	300.0000000000182 	7.696530834875941e-13 	101324.9999999897
0.1038538538538534 	299.9999999999515 	9.506462528926406e-13 	101324.9999999897
0.1063563563563559 	300.000000000009 	1.166837154807486e-12 	101324.9999999898
0.1088588588588584 	300.0000000000309 	7.254244493013839e-13 	101324.99999999
0.1113613613613609 	299.999999999905 	9.904236874526817e-13 	101324.9999999898
0.1138638638638634 	299.9999999999374 	1.148312659839219e-12 	101324.9999999899
0.1163663663663659 	299.9999999999425 	7.117873339370939e-13 	101324.9999999898
0.1188688688688684 	299.999999999971 	1.309352348111046e-12 	101324.99999999
0.1213713713713709 	299.9999999999978 	7.510323892109944e-13 	101324.9999999897
0.1238738738738734 	299.9999999999177 	1.045164257596235e-12 	101324.9999999895
0.1263763763763759 	299.999999999979 	4.423181437920867e-13 	101324.9999999895
0.1288788788788784 	299.9999999999804 	9.139147554840655e-13 	101324.9999999892
0.1313813813813809 	299.99999999998 	7.19034087163527e-13 	101324.9999999894
0.1338838838838834 	299.9999999999745 	1.290441591096463e-12 	101324.9999999894
0.1363863863863859 	300.000000000015 	1.033779495130169e-12 	101324.9999999896
0.1388888888888884 	300.0000000000476 	2.11305391513088e-12 	101324.9999999897
0.1413913913913909 	300.000000000006 	1.357136731465901e-12 	101324.9999999895
0.1438938938938934 	299.9999999999922 	2.940002556469227e-12 	101324.9999999894
0.1463963963963959 	299.9999999999491 	8.007353158868772e-13 	101324.9999999899
0.1488988988988985 	299.9999999998966 	2.058897663243878e-12 	101324.9999999898
0.1514014014014009 	299.9999999999631 	3.622138895118589e-13 	101324.99999999
0.1539039039039035 	299.9999999999582 	2.28231789957317e-12 	101324.9999999897
0.1564064064064059 	299.9999999999197 	1.008130678886513e-12 	101324.9999999894
0.1589089089089084 	299.9999999999703 	2.34071995303909e-12 	101324.9999999894
0.1614114114114109 	299.9999999999638 	4.027592993730923e-13 	101324.9999999894
0.1639139139139134 	299.9999999998963 	1.508125991955243e-12 	101324.9999999895
0.166416416416416 	300.0000000000102 	8.536815976398769e-13 	101324.9999999899
0.1689189189189185 	300.0000000000364 	1.29467114135909e-12 	101324.9999999902
0.1714214214214209 	300.0000000000023 	2.076741821248572e-12 	101324.9999999901
0.1739239239239235 	299.9999999999861 	1.000960487215376e-12 	101324.9999999899
0.1764264264264259 	299.9999999999672 	3.253026965200421e-12 	101324.99999999
0.1789289289289284 	300.0000000000085 	1.21586921960213e-12 	101324.9999999902
0.181431431431431 	299.9999999999591 	3.808473890167279e-12 	101324.9999999903
0.1839339339339334 	299.9999999999671 	1.90167752496345e-12 	101324.9999999899
0.186436436436436 	299.9999999999156 	3.710540623568096e-12 	101324.9999999899
0.1889389389389385 	299.9999999999773 	3.208375307952242e-12 	101324.9999999896
0.191441441441441 	299.9999999999729 	2.639730331823675e-12 	101324.99999999
0.1939439439439434 	299.9999999999069 	3.85804172948177e-12 	101324.9999999897
0.196446446446446 	299.9999999999423 	2.253250488454325e-12 	101324.9999999895
0.1989489489489485 	299.999999999962 	4.798596850705341e-12 	101324.9999999892
0.2014514514514509 	299.9999999999768 	3.09427914469735e-12 	101324.9999999891
0.2039539539539535 	299.9999999999929 	4.250843608182303e-12 	101324.9999999893
0.2064564564564559 	299.9999999999456 	3.427279239818941e-12 	101324.9999999893
0.2089589589589585 	299.9999999999819 	3.729227361462481e-12 	101324.9999999888
0.211461461461461 	299.9999999999174 	3.542750975152427e-12 	101324.9999999884
0.2139639639639635 	299.9999999999762 	2.330065608871656e-12 	101324.9999999888
0.2164664664664659 	299.9999999999939 	3.356464578427286e-12 	101324.9999999885
0.2189689689689684 	299.999999999994 	1.228575040403592e-12 	101324.9999999884
0.221471471471471 	299.9999999999937 	3.342376065777748e-12 	101324.9999999885
0.2239739739739735 	299.9999999999497 	1.339404065685388e-12 	101324.9999999888
0.226476476476476 	299.9999999999746 	3.191694957336999e-12 	101324.9999999892
0.2289789789789785 	299.9999999999959 	2.459933601153067e-12 	101324.9999999896
0.231481481481481 	299.9999999999798 	2.313227685376136e-12 	101324.9999999899
0.2339839839839835 	299.9999999999813 	2.749205429682109e-12 	101324.9999999899
0.236486486486486 	300.0000000000333 	2.20620474256182e-12 	101324.9999999899
0.2389889889889885 	300.0000000000048 	3.444604760008317e-12 	101324.9999999896
0.241491491491491 	299.9999999999083 	1.304298975038857e-12 	101324.9999999896
0.2439939939939935 	299.9999999999744 	3.999816192925678e-12 	101324.9999999898
0.246496496496496 	299.9999999999919 	1.626868581024884e-12 	101324.9999999897
0.2489989989989985 	300.0000000000421 	3.207420125206182e-12 	101324.9999999896
0.251501501501501 	300.0000000000361 	2.290956646705334e-12 	101324.9999999895
0.2540040040040035 	299.9999999999907 	2.383570129581146e-12 	101324.9999999896
0.256506506506506 	300.0000000000356 	2.706479689014372e-12 	101324.9999999895
0.2590090090090086 	299.9999999999001 	1.336057667776895e-12 	101324.9999999895
0.261511511511511 	300.0000000000002 	2.898538546075598e-12 	101324.9999999897
0.2640140140140135 	299.9999999999897 	1.000752339390632e-12 	101324.9999999897
0.2665165165165161 	299.9999999999189 	2.702496726185623e-12 	101324.9999999896
0.2690190190190185 	300.0000000000149 	1.484782203713414e-12 	101324.9999999895
0.271521521521521 	300.0000000000209 	8.623142041109594e-13 	101324.9999999893
0.2740240240240235 	300.0000000000206 	8.115318167342646e-13 	101324.9999999892
0.276526526526526 	300.0000000000107 	3.990364825998517e-13 	101324.9999999893
0.2790290290290286 	299.9999999999341 	5.668814248963503e-13 	101324.9999999894
0.281531531531531 	299.9999999999184 	8.032252438202179e-13 	101324.999999989
0.2840340340340335 	299.9999999999789 	1.073765722385537e-12 	101324.9999999888
0.2865365365365361 	299.999999999952 	3.243431659512696e-13 	101324.9999999887
0.2890390390390385 	299.9999999999993 	7.437533468908995e-13 	101324.999999989
0.291541541541541 	299.9999999999976 	1.032335287178177e-12 	101324.9999999889
0.2940440440440436 	299.9999999999877 	4.688853676721771e-13 	101324.999999989
0.296546546546546 	299.9999999999899 	2.533645240072075e-12 	101324.9999999889
0.2990490490490486 	299.9999999999284 	7.675719545367403e-13 	101324.9999999887
0.3015515515515511 	300.0000000000382 	4.168043848411368e-12 	101324.9999999886
0.3040540540540535 	299.9999999999924 	2.646588923540448e-12 	101324.9999999887
0.3065565565565562 	299.9999999999961 	4.062834515498422e-12 	101324.9999999887
0.3090590590590585 	299.999999999987 	2.906909470092219e-12 	101324.9999999887
0.3115615615615611 	299.9999999999311 	3.079163494361044e-12 	101324.9999999888
0.3140640640640635 	300.0000000000081 	2.097516921461743e-12 	101324.999999989
0.316566566566566 	299.9999999999936 	2.419807917878758e-12 	101324.9999999894
0.3190690690690687 	299.999999999945 	1.301759865606674e-12 	101324.9999999894
0.3215715715715711 	300.0000000000122 	2.798319343385852e-12 	101324.9999999896
0.3240740740740735 	299.9999999999928 	1.017836053528672e-12 	101324.9999999899
0.326576576576576 	299.9999999998832 	2.472403534919907e-12 	101324.99999999
0.3290790790790786 	300.0000000000139 	3.480412406123051e-13 	101324.9999999898
0.3315815815815811 	300.0000000000437 	1.683319134527866e-12 	101324.9999999899
0.3340840840840836 	299.9999999999865 	4.711540002510773e-13 	101324.9999999897
0.3365865865865861 	300.000000000061 	1.688557326236353e-12 	101324.9999999897
0.3390890890890886 	300.0000000000533 	6.530010391565091e-13 	101324.9999999898
0.3415915915915911 	300.0000000000022 	1.06382508443096e-12 	101324.9999999896
0.3440940940940935 	299.999999999946 	1.04249278356696e-12 	101324.9999999897
0.3465965965965962 	300.0000000000411 	1.610084759988109e-12 	101324.9999999897
0.3490990990990985 	300.0000000000321 	8.308192796431782e-13 	101324.99999999
0.3516016016016011 	299.999999999985 	1.095821667740699e-12 	101324.9999999903
0.3541041041041035 	300.0000000000056 	9.955032801387156e-13 	101324.9999999907
0.3566066066066061 	299.9999999999534 	4.673282066768834e-13 	101324.999999991
0.3591091091091085 	299.9999999999089 	2.176827035877112e-12 	101324.9999999907
0.3616116116116112 	299.9999999999357 	1.368261806513568e-12 	101324.9999999904
0.3641141141141137 	299.9999999999226 	2.430848057523157e-12 	101324.9999999901
0.3666166166166161 	299.9999999999111 	2.161803586531418e-12 	101324.9999999901
0.3691191191191185 	300.0000000000439 	3.303024583235341e-12 	101324.9999999898
0.371621621621621 	300.0000000000169 	2.094718268380623e-12 	101324.9999999898
0.3741241241241237 	300.0000000000592 	2.15501572406495e-12 	101324.99999999
0.3766266266266261 	300.0000000000342 	2.182591818497765e-12 	101324.99999999
0.3791291291291286 	299.9999999999824 	8.398228356705323e-13 	101324.99999999
0.3816316316316311 	299.9999999999085 	2.652130400857692e-12 	101324.9999999898
0.3841341341341336 	300.0000000000124 	9.353820422779034e-13 	101324.9999999895
0.3866366366366362 	299.999999999999 	2.531733580516289e-12 	101324.9999999896
0.3891391391391387 	299.9999999999513 	4.625650862355501e-13 	101324.9999999893
0.391641641641641 	299.9999999999919 	2.091112769459859e-12 	101324.9999999894
0.3941441441441436 	300.0000000000067 	9.124033825061701e-13 	101324.9999999892
0.3966466466466462 	299.9999999999957 	2.207855400054718e-12 	101324.999999989
0.3991491491491486 	299.999999999933 	1.102348657263238e-12 	101324.9999999888
0.4016516516516512 	299.9999999998977 	1.878337125621792e-12 	101324.9999999889
0.4041541541541536 	299.9999999999482 	7.073107576410061e-13 	101324.9999999891
0.4066566566566561 	299.9999999999413 	2.437856148614269e-12 	101324.999999989
0.4091591591591587 	299.999999999983 	9.842790726517847e-13 	101324.9999999891
0.4116616616616612 	299.9999999999981 	2.107971635559107e-12 	101324.9999999892
0.4141641641641635 	300.0000000000488 	1.2974807097691e-12 	101324.9999999891
0.4166666666666662 	299.9999999999957 	1.089524979409024e-12 	101324.999999989
0.4191691691691687 	299.999999999935 	1.912277026432932e-12 	101324.9999999892
0.421671671671671 	300.0000000000126 	1.630829777917111e-12 	101324.9999999893
0.4241741741741737 	299.9999999999738 	2.482078295968042e-12 	101324.9999999894
0.4266766766766761 	299.9999999999483 	3.047829362759059e-12 	101324.9999999894
0.4291791791791785 	300.0000000000181 	2.868650247404558e-12 	101324.9999999894
0.4316816816816812 	300.0000000000104 	3.342190522460864e-12 	101324.9999999893
0.4341841841841836 	299.9999999999846 	3.221418753796963e-12 	101324.9999999893
0.4366866866866862 	299.9999999999105 	1.683636300341659e-12 	101324.9999999892
0.4391891891891885 	299.9999999999852 	2.044366907498688e-12 	101324.9999999894
0.4416916916916913 	299.9999999999843 	1.268436480636282e-12 	101324.9999999899
0.4441941941941936 	299.9999999999872 	1.976716299323763e-12 	101324.9999999897
0.4466966966966961 	299.9999999999046 	7.141515303126244e-13 	101324.9999999895
0.4491991991991987 	299.9999999999803 	7.384788731871837e-13 	101324.9999999894
0.4517017017017012 	299.9999999999791 	1.840203206636372e-13 	101324.9999999893
0.4542042042042035 	299.9999999999971 	1.088951847722348e-13 	101324.999999989
0.4567067067067062 	299.9999999999978 	5.440784408381526e-13 	101324.9999999891
0.4592092092092087 	299.9999999999172 	5.974690914339684e-13 	101324.9999999894
0.4617117117117112 	300.0000000000223 	7.06824531329183e-13 	101324.9999999896
0.4642142142142137 	299.9999999999603 	6.951601136342044e-13 	101324.9999999896
0.4667167167167162 	299.9999999999911 	5.033304389330905e-13 	101324.9999999895
0.4692192192192187 	299.9999999999501 	3.561317614025785e-13 	101324.9999999892
0.4717217217217212 	300.0000000000182 	3.995402257763114e-13 	101324.999999989
0.4742242242242236 	299.9999999999615 	4.884452310960729e-13 	101324.9999999893
0.4767267267267262 	299.9999999999553 	1.053588346869957e-12 	101324.9999999895
0.4792292292292287 	300.0000000000164 	1.214775329028478e-12 	101324.9999999896
0.4817317317317312 	300.0000000000331 	4.035476714795873e-13 	101324.9999999897
0.4842342342342336 	299.9999999999769 	4.793106735063303e-13 	101324.9999999897
0.4867367367367362 	299.9999999999467 	3.541720097990035e-13 	101324.9999999895
0.4892392392392387 	300.0000000000324 	1.493354920154491e-12 	101324.9999999895
0.4917417417417412 	300.0000000000074 	1.127397807662689e-12 	101324.9999999894
0.4942442442442437 	299.9999999998973 	8.98393710852551e-13 	101324.9999999894
0.4967467467467462 	299.9999999999229 	1.300797622593417e-12 	101324.9999999895
0.4992492492492487 	299.9999999999093 	7.68657238650064e-13 	101324.9999999894
0.5017517517517511 	299.9999999999487 	2.237549473878968e-13 	101324.9999999893
0.5042542542542537 	299.9999999999616 	1.225243262840701e-13 	101324.9999999894
0.5067567567567562 	299.9999999999374 	4.733186958547209e-13 	101324.9999999893
0.5092592592592589 	299.9999999999628 	9.335227045043549e-13 	101324.9999999893
0.5117617617617611 	299.9999999999549 	1.392075873434846e-12 	101324.9999999893
0.5142642642642637 	299.9999999999825 	1.804242926594153e-12 	101324.9999999894
0.5167667667667663 	299.9999999999682 	3.14544016283446e-12 	101324.9999999893
0.5192692692692688 	299.99999999991 	2.454397108260308e-12 	101324.9999999895
0.5217717717717714 	299.9999999999329 	5.46342840250214e-12 	101324.9999999897
0.5242742742742736 	299.9999999999365 	1.763474400932906e-12 	101324.9999999896
0.5267767767767763 	299.9999999999537 	5.884754409463828e-12 	101324.9999999895
0.5292792792792789 	299.9999999999295 	2.55659913513365e-12 	101324.9999999893
0.5317817817817813 	299.9999999999029 	5.333266861730282e-12 	101324.9999999892
0.5342842842842837 	300.0000000000144 	2.522272205193831e-12 	101324.9999999892
0.5367867867867864 	300.0000000000017 	4.234947739740795e-12 	101324.9999999894
0.5392892892892888 	299.9999999999572 	2.4936299807716e-12 	101324.9999999896
0.5417917917917912 	300.0000000000059 	3.658512992326394e-12 	101324.9999999897
0.5442942942942938 	299.9999999999814 	1.973319450718319e-12 	101324.9999999899
0.5467967967967964 	299.999999999942 	3.2930651012416e-12 	101324.99999999
0.5492992992992988 	299.9999999999378 	2.152141327716573e-12 	101324.9999999902
0.5518018018018012 	299.9999999999313 	3.30346991568647e-12 	101324.9999999903
0.5543043043043039 	300.0000000000248 	2.135703691872084e-12 	101324.9999999904
0.5568068068068063 	299.9999999999915 	3.157415714788871e-12 	101324.99999999
0.5593093093093087 	299.9999999998967 	2.39414969230033e-12 	101324.9999999896
0.5618118118118114 	299.9999999999573 	4.108785955740886e-12 	101324.9999999896
0.5643143143143137 	299.9999999999447 	3.140804461852121e-12 	101324.9999999896
0.5668168168168163 	299.9999999999915 	3.976754990205585e-12 	101324.9999999898
0.5693193193193188 	300.0000000000335 	3.219270027035548e-12 	101324.9999999896
0.5718218218218213 	300.0000000000256 	2.232810987943836e-12 	101324.9999999898
0.5743243243243239 	300.0000000000039 	2.92852269461198e-12 	101324.9999999897
0.5768268268268262 	300.0000000000041 	1.845726871478392e-12 	101324.9999999897
0.5793293293293288 	299.9999999999389 	4.523676522917023e-12 	101324.9999999899
0.5818318318318314 	299.9999999999096 	2.459385206927662e-12 	101324.9999999902
0.5843343343343338 	299.9999999999811 	6.046951882058515e-12 	101324.9999999901
0.5868368368368363 	299.9999999999783 	1.941138773917446e-12 	101324.9999999899
0.5893393393393387 	299.999999999948 	4.667468897509221e-12 	101324.99999999
0.5918418418418413 	299.9999999999347 	2.440068222510484e-12 	101324.9999999901
0.5943443443443439 	300.0000000000152 	4.680349328419567e-12 	101324.9999999903
0.5968468468468463 	300.0000000000131 	2.589401516059289e-12 	101324.9999999906
0.5993493493493487 	300.0000000000371 	3.932561544326392e-12 	101324.9999999907
0.6018518518518514 	299.99999999998 	2.2942033812826e-12 	101324.9999999907
0.6043543543543537 	299.9999999999928 	3.698421560507345e-12 	101324.9999999906
0.6068568568568564 	299.9999999999803 	1.794604909503601e-12 	101324.9999999905
0.6093593593593587 	299.9999999999267 	2.370494258932944e-12 	101324.9999999904
0.6118618618618614 	299.9999999999208 	8.608006419438473e-13 	101324.9999999906
0.6143643643643638 	300.0000000000285 	2.295721063762181e-12 	101324.9999999905
0.6168668668668662 	299.9999999999893 	1.256947245002895e-12 	101324.9999999906
0.6193693693693688 	299.9999999999506 	2.426110371471495e-12 	101324.9999999907
0.6218718718718714 	299.9999999999608 	1.204394753668616e-12 	101324.9999999906
0.6243743743743737 	299.9999999999296 	3.482002537075279e-12 	101324.9999999906
0.6268768768768762 	299.9999999999204 	2.253765070268059e-12 	101324.9999999905
0.629379379379379 	299.9999999999508 	2.928380552989962e-12 	101324.9999999905
0.6318818818818812 	299.9999999999823 	2.226103635819613e-12 	101324.9999999906
0.6343843843843838 	300.0000000000208 	2.687555294878602e-12 	101324.9999999905
0.6368868868868864 	299.9999999999787 	3.147604126605455e-12 	101324.9999999905
0.6393893893893888 	299.9999999999174 	1.524644480515599e-12 	101324.9999999904
0.6418918918918912 	300.0000000000085 	4.174033507710878e-12 	101324.9999999905
0.6443943943943939 	299.9999999999828 	2.75764899933576e-12 	101324.9999999907
0.6468968968968963 	299.999999999982 	4.601479610833862e-12 	101324.9999999909
0.6493993993993988 	299.9999999999728 	2.120989556958512e-12 	101324.9999999911
0.6519019019019012 	299.9999999999783 	4.271197864315379e-12 	101324.9999999909
0.6544044044044038 	299.9999999998999 	1.7807414680948e-12 	101324.9999999907
0.6569069069069065 	299.9999999999475 	4.34276654896889e-12 	101324.9999999906
0.6594094094094087 	299.9999999999597 	1.892099485379438e-12 	101324.9999999905
0.6619119119119113 	299.9999999999516 	4.433114783281563e-12 	101324.9999999905
0.664414414414414 	300.0000000000015 	3.318805225377737e-12 	101324.9999999906
0.6669169169169162 	300.0000000000265 	5.3923393237501e-12 	101324.9999999908
0.6694194194194188 	299.9999999999872 	3.554675443416866e-12 	101324.9999999909
0.6719219219219214 	299.9999999999127 	4.757267641514002e-12 	101324.9999999911
0.674424424424424 	299.9999999999698 	3.498211997849739e-12 	101324.9999999908
0.6769269269269262 	299.9999999999146 	4.815213158003864e-12 	101324.9999999906
0.679429429429429 	300.0000000000047 	3.855727549215742e-12 	101324.9999999908
0.6819319319319311 	299.9999999999812 	4.249849147019321e-12 	101324.999999991
0.6844344344344341 	299.9999999999893 	3.10933558405937e-12 	101324.999999991
0.686936936936936 	299.9999999999851 	3.954015099212433e-12 	101324.999999991
0.6894394394394392 	299.999999999984 	3.325765455790532e-12 	101324.9999999911
0.6919419419419413 	299.999999999981 	3.051163614381906e-12 	101324.9999999913
0.694444444444444 	299.999999999928 	2.817885041531765e-12 	101324.9999999914
0.6969469469469463 	299.9999999999204 	2.990899834151867e-12 	101324.9999999915
0.6994494494494489 	299.9999999999164 	3.972209158042341e-12 	101324.9999999915
0.7019519519519515 	299.9999999999833 	3.513432381322734e-12 	101324.9999999915
0.7044544544544538 	299.9999999999507 	5.210281641443418e-12 	101324.9999999917
0.7069569569569564 	299.9999999999957 	3.179577185241826e-12 	101324.9999999917
0.7094594594594589 	299.9999999999641 	5.389806075127315e-12 	101324.9999999915
0.7119619619619615 	299.9999999999079 	3.153913804292949e-12 	101324.9999999913
0.7144644644644638 	299.999999999946 	5.256816592995726e-12 	101324.9999999914
0.7169669669669665 	299.9999999999173 	4.630635157155574e-12 	101324.9999999913
0.7194694694694688 	299.9999999999874 	6.529159670001076e-12 	101324.9999999914
0.7219719719719715 	299.9999999999856 	5.421465278464826e-12 	101324.9999999915
0.7244744744744737 	300.0000000000082 	5.559019067193501e-12 	101324.9999999913
0.7269769769769764 	299.9999999999941 	5.13450615518057e-12 	101324.9999999912
0.7294794794794791 	299.9999999999817 	4.303810987022086e-12 	101324.9999999913
0.7319819819819813 	299.9999999999786 	5.507944706472351e-12 	101324.9999999914
0.7344844844844839 	299.9999999999138 	3.991785971761556e-12 	101324.9999999916
0.7369869869869864 	299.9999999999438 	4.894918823523174e-12 	101324.9999999916
0.739489489489489 	299.999999999935 	4.397793380324835e-12 	101324.9999999915
0.7419919919919914 	299.9999999999178 	4.781423857367217e-12 	101324.9999999915
0.7444944944944939 	299.9999999999779 	6.034772038039011e-12 	101324.9999999916
0.7469969969969963 	299.9999999999719 	4.694037701793896e-12 	101324.9999999918
0.7494994994994989 	299.999999999942 	6.76750305727636e-12 	101324.9999999922
0.7520020020020015 	299.9999999999723 	4.908253108706564e-12 	101324.9999999924
0.7545045045045039 	299.9999999999671 	8.285914193998005e-12 	101324.9999999928
0.7570070070070062 	299.999999999939 	6.26025109201404e-12 	101324.9999999927
0.7595095095095092 	299.9999999999258 	7.881811969093846e-12 	101324.9999999928
0.7620120120120112 	300.000000000008 	6.887882818577009e-12 	101324.9999999927
0.7645145145145138 	299.9999999999843 	6.622198634897932e-12 	101324.9999999928
0.7670170170170165 	299.9999999999238 	6.435541161125173e-12 	101324.9999999928
0.7695195195195191 	299.999999999916 	5.550349477182641e-12 	101324.9999999929
0.7720220220220213 	299.9999999999285 	7.612491105926963e-12 	101324.9999999928
0.7745245245245239 	299.9999999999269 	5.580278033528474e-12 	101324.9999999929
0.7770270270270263 	299.9999999999669 	7.113170752829501e-12 	101324.9999999929
0.779529529529529 	299.9999999999798 	5.821631487286798e-12 	101324.9999999928
0.7820320320320313 	299.9999999999706 	7.104875397435251e-12 	101324.9999999927
0.784534534534534 	300.0000000000071 	7.715862444005073e-12 	101324.9999999928
0.7870370370370364 	299.9999999999952 	7.346631262671316e-12 	101324.9999999927
0.7895395395395389 	299.9999999999771 	7.974466653337466e-12 	101324.9999999926
0.7920420420420413 	299.9999999999685 	6.793517001430595e-12 	101324.9999999927
0.794544544544544 	299.9999999999686 	8.252086608659865e-12 	101324.9999999927
0.7970470470470463 	300.0000000000011 	6.203958785452082e-12 	101324.9999999927
0.799549549549549 	299.9999999999835 	9.277852526943601e-12 	101324.9999999928
0.8020520520520515 	299.9999999999889 	6.575844749143408e-12 	101324.9999999928
0.8045545545545539 	299.9999999999437 	7.907282051194512e-12 	101324.9999999928
0.8070570570570563 	299.9999999999825 	6.08182894357611e-12 	101324.9999999928
0.8095595595595589 	299.9999999999551 	6.634345876239896e-12 	101324.9999999929
0.8120620620620614 	299.9999999999303 	6.990620520013122e-12 	101324.9999999931
0.8145645645645638 	299.9999999999948 	7.525707381179818e-12 	101324.9999999931
0.8170670670670666 	299.9999999999922 	8.617454747496652e-12 	101324.9999999929
0.8195695695695689 	299.9999999999751 	7.743674001215668e-12 	101324.9999999928
0.8220720720720714 	299.9999999999409 	1.054592160158883e-11 	101324.9999999927
0.8245745745745739 	299.9999999999909 	9.174781974587913e-12 	101324.9999999929
0.8270770770770765 	299.9999999999671 	1.161888801662984e-11 	101324.999999993
0.8295795795795788 	299.9999999999482 	1.083990409209103e-11 	101324.9999999931
0.8320820820820815 	300.0000000000198 	1.146673699297939e-11 	101324.9999999932
0.834584584584584 	300.0000000000108 	1.074338114659135e-11 	101324.9999999933
0.8370870870870865 	299.9999999999671 	1.057591003814433e-11 	101324.9999999933
0.8395895895895891 	299.9999999999261 	1.084254349746481e-11 	101324.9999999934
0.8420920920920915 	299.9999999999426 	9.714308373164226e-12 	101324.9999999933
0.844594594594594 	299.9999999999409 	9.625295629314759e-12 	101324.9999999934
0.8470970970970964 	299.9999999999551 	9.87572951917182e-12 	101324.9999999936
0.8495995995995991 	299.9999999999881 	1.003278744399832e-11 	101324.9999999939
0.8521021021021015 	299.9999999999793 	1.070552261715802e-11 	101324.9999999941
0.8546046046046039 	299.9999999999779 	9.926954111683423e-12 	101324.9999999939
0.8571071071071066 	300.0000000000057 	1.078122263321933e-11 	101324.9999999939
0.8596096096096089 	299.9999999999642 	8.729939674177636e-12 	101324.999999994
0.8621121121121116 	299.9999999999322 	1.113674965959591e-11 	101324.9999999942
0.8646146146146139 	299.9999999999934 	8.685640367967778e-12 	101324.9999999944
0.8671171171171166 	299.9999999999661 	9.744089765272443e-12 	101324.9999999946
0.8696196196196189 	299.9999999999364 	8.856755786857354e-12 	101324.9999999946
0.8721221221221216 	299.9999999999829 	9.557815609390568e-12 	101324.9999999945
0.874624624624624 	300.0000000000006 	9.467609390091201e-12 	101324.9999999945
0.8771271271271264 	299.9999999999997 	9.207227362460369e-12 	101324.9999999947
0.879629629629629 	300.0000000000068 	9.925240034769637e-12 	101324.9999999948
0.8821321321321317 	299.9999999999801 	8.498304139957216e-12 	101324.9999999949
0.8846346346346339 	299.9999999999184 	1.095668218447255e-11 	101324.9999999948
0.8871371371371364 	299.999999999954 	8.475962587703983e-12 	101324.9999999947
0.8896396396396391 	299.9999999999613 	1.03921094473968e-11 	101324.9999999946
0.8921421421421414 	299.9999999999673 	9.667521284511274e-12 	101324.9999999946
0.8946446446446441 	299.9999999999856 	1.094339854427803e-11 	101324.9999999947
0.8971471471471464 	299.9999999999999 	1.01171265038858e-11 	101324.9999999949
0.8996496496496489 	299.9999999999761 	9.944010084710639e-12 	101324.9999999951
0.9021521521521517 	299.9999999999608 	1.089018468928509e-11 	101324.9999999953
0.9046546546546541 	299.9999999999897 	1.04863222700651e-11 	101324.9999999955
0.9071571571571564 	299.9999999999496 	1.12127009504765e-11 	101324.9999999957
0.9096596596596589 	299.9999999999508 	1.101858826393745e-11 	101324.9999999959
0.9121621621621616 	300.0000000000089 	1.072440601837867e-11 	101324.9999999961
0.9146646646646639 	299.9999999999788 	1.072674544987109e-11 	101324.9999999961
0.9171671671671666 	299.999999999949 	1.050024575001397e-11 	101324.9999999959
0.9196696696696689 	300.0000000000048 	1.141011819870768e-11 	101324.9999999957
0.9221721721721714 	300.000000000001 	9.45405562726136e-12 	101324.9999999957
0.9246746746746741 	299.9999999999434 	1.180330018580549e-11 	101324.9999999956
0.9271771771771765 	299.9999999999489 	9.514892431132611e-12 	101324.9999999955
0.9296796796796791 	299.9999999999918 	1.187717196116775e-11 	101324.9999999956
0.9321821821821816 	299.9999999999646 	1.061988506400596e-11 	101324.9999999956
0.9346846846846838 	299.9999999999426 	1.207502286880298e-11 	101324.9999999957
0.9371871871871866 	300.0000000000134 	1.181396208189856e-11 	101324.9999999957
0.9396896896896891 	300.0000000000121 	1.245252813166569e-11 	101324.9999999955
0.9421921921921914 	300.0000000000073 	1.323204817002532e-11 	101324.9999999956
0.9446946946946939 	299.9999999999671 	1.271803285027012e-11 	101324.9999999959
0.9471971971971965 	299.9999999999229 	1.472055856740157e-11 	101324.9999999958
0.9496996996996991 	299.9999999999624 	1.261474723110024e-11 	101324.9999999955
0.9522022022022016 	299.9999999999777 	1.418485916205943e-11 	101324.9999999954
0.9547047047047038 	299.9999999999732 	1.275539142616633e-11 	101324.9999999955
0.9572072072072064 	299.9999999999617 	1.311834631891421e-11 	101324.9999999958
0.9597097097097093 	299.9999999999671 	1.262297997529835e-11 	101324.9999999961
0.9622122122122114 	299.9999999999603 	1.205429586252275e-11 	101324.9999999961
0.964714714714714 	299.9999999999546 	1.29650549162849e-11 	101324.9999999961
0.9672172172172167 	299.9999999999548 	1.212566624866784e-11 	101324.9999999961
0.969719719719719 	299.9999999999844 	1.341232257758296e-11 	101324.9999999961
0.9722222222222214 	299.9999999999808 	1.371136723295826e-11 	101324.9999999961
0.9747247247247239 	299.999999999976 	1.458722538327869e-11 	101324.9999999963
0.9772272272272267 	300.0000000000096 	1.526154962674569e-11 	101324.9999999964
0.9797297297297292 	299.9999999999909 	1.5161138697676e-11 	101324.9999999964
0.9822322322322313 	299.9999999999894 	1.574883479054608e-11 	101324.9999999965
0.9847347347347344 	299.9999999999852 	1.393428862167095e-11 	101324.9999999965
0.9872372372372363 	299.9999999999428 	1.604250402554018e-11 	101324.9999999964
0.9897397397397389 	299.9999999999613 	1.350494347771386e-11 	101324.9999999962
0.9922422422422417 	299.9999999999441 	1.580181864790788e-11 	101324.9999999962
0.9947447447447441 	299.9999999999632 	1.411672330460047e-11 	101324.9999999963
0.9972472472472468 	299.999999999979 	1.460386412866111e-11 	101324.9999999964
0.999749749749749 	299.9999999999705 	1.402209001523986e-11 	101324.9999999964
1.002252252252252 	299.9999999999764 	1.502055607054445e-11 	101324.9999999967
1.004754754754754 	299.999999999994 	1.562073841135303e-11 	101324.9999999967
1.007257257257256 	299.9999999999706 	1.499344223526261e-11 	101324.9999999968
1.009759759759759 	299.999999999959 	1.710102230862399e-11 	101324.9999999972
1.012262262262261 	299.9999999999536 	1.521069666294861e-11 	101324.9999999973
1.014764764764764 	299.9999999999291 	1.775009754522546e-11 	101324.9999999971
1.017267267267267 	299.999999999921 	1.747677815938463e-11 	101324.9999999971
1.019769769769769 	299.9999999999715 	1.827643120887772e-11 	101324.9999999972
1.022272272272272 	299.9999999999892 	1.67576976322367e-11 	101324.999999997
1.024774774774774 	299.9999999999845 	1.628797813848372e-11 	101324.999999997
1.027277277277277 	299.9999999999816 	1.748776308706805e-11 	101324.999999997
1.029779779779779 	300.0000000000135 	1.670610729458009e-11 	101324.9999999969
1.032282282282282 	300.0000000000148 	1.726426726630137e-11 	101324.9999999969
1.034784784784784 	300.0000000000008 	1.628334259770477e-11 	101324.9999999972
1.037287287287286 	299.9999999999667 	1.655264738574673e-11 	101324.9999999974
1.039789789789789 	299.9999999999742 	1.638861287928636e-11 	101324.9999999975
1.042292292292291 	300.0000000000059 	1.682885958247939e-11 	101324.9999999975
1.044794794794794 	300.0000000000194 	1.695317377920978e-11 	101324.9999999973
1.047297297297296 	300.0000000000386 	1.526419536985786e-11 	101324.9999999973
1.049799799799799 	299.9999999999893 	1.683517076234359e-11 	101324.9999999974
1.052302302302302 	299.999999999955 	1.484763226140661e-11 	101324.9999999976
1.054804804804804 	299.9999999999363 	1.703071523520224e-11 	101324.9999999977
1.057307307307306 	299.9999999999193 	1.654243068462078e-11 	101324.9999999976
1.059809809809809 	299.9999999999578 	1.798698666347016e-11 	101324.9999999977
1.062312312312312 	299.9999999999521 	1.708426777959161e-11 	101324.9999999978
1.064814814814814 	299.9999999999458 	1.74274612060117e-11 	101324.9999999978
1.067317317317317 	299.9999999999225 	1.708358996872273e-11 	101324.9999999978
1.069819819819819 	299.999999999928 	1.68424533938416e-11 	101324.9999999977
1.072322322322321 	299.9999999999916 	1.875491738498662e-11 	101324.9999999975
1.074824824824824 	300.0000000000048 	1.687886769078343e-11 	101324.9999999976
1.077327327327327 	300.00000000003 	1.840285372619377e-11 	101324.9999999977
1.079829829829829 	300.0000000000501 	1.654630201249374e-11 	101324.9999999978
1.082332332332332 	300.0000000000131 	1.67704803557745e-11 	101324.9999999978
1.084834834834834 	299.9999999999815 	1.624463905485171e-11 	101324.9999999979
1.087337337337337 	299.9999999999406 	1.644897784207504e-11 	101324.9999999979
1.089839839839839 	299.9999999999319 	1.810068848987066e-11 	101324.9999999978
1.092342342342342 	299.9999999999728 	1.726213330306124e-11 	101324.9999999977
1.094844844844844 	299.9999999999712 	1.966031539088528e-11 	101324.9999999977
1.097347347347347 	299.9999999999395 	1.852594746201277e-11 	101324.9999999976
1.099849849849849 	299.9999999999295 	2.139437530507624e-11 	101324.9999999974
1.102352352352352 	299.9999999999562 	1.900922658648898e-11 	101324.9999999974
1.104854854854854 	299.9999999999752 	2.152922091632422e-11 	101324.9999999975
1.107357357357357 	299.9999999999568 	2.026932891529515e-11 	101324.9999999975
1.109859859859859 	299.999999999943 	2.180572812701922e-11 	101324.9999999974
1.112362362362362 	300.0000000000091 	2.06401698796392e-11 	101324.9999999976
1.114864864864865 	300.0000000000089 	2.119896144832283e-11 	101324.9999999976
1.117367367367367 	299.9999999999644 	2.289260410115388e-11 	101324.9999999976
1.119869869869869 	299.9999999999285 	2.134432486695108e-11 	101324.9999999977
1.122372372372372 	299.9999999999585 	2.271206650210676e-11 	101324.9999999978
1.124874874874874 	299.9999999999549 	2.189098643436211e-11 	101324.9999999979
1.127377377377377 	299.9999999999665 	2.341284031971917e-11 	101324.9999999979
1.129879879879879 	300.0000000000182 	2.250716266787224e-11 	101324.9999999977
1.132382382382382 	300.0000000000343 	2.278397175442915e-11 	101324.9999999976
1.134884884884884 	300.0000000000115 	2.212211250745807e-11 	101324.9999999976
1.137387387387387 	300.0000000000162 	2.189031155649464e-11 	101324.9999999976
1.139889889889889 	299.9999999999615 	2.303682803756386e-11 	101324.9999999979
1.142392392392392 	299.9999999999512 	2.121899641050929e-11 	101324.9999999982
1.144894894894894 	300.0000000000166 	2.179019761037761e-11 	101324.9999999985
1.147397397397397 	300.0000000000003 	1.990006204518247e-11 	101324.9999999985
1.149899899899899 	299.9999999999424 	2.084197149736067e-11 	101324.9999999985
1.152402402402402 	299.9999999999288 	2.03406377966767e-11 	101324.9999999985
1.154904904904904 	299.9999999999666 	2.121937223391824e-11 	101324.9999999985
1.157407407407407 	299.9999999999682 	2.059342189148734e-11 	101324.9999999984
1.159909909909909 	299.9999999999363 	2.099335615937572e-11 	101324.9999999984
1.162412412412412 	299.999999999927 	2.269677747480849e-11 	101324.9999999984
1.164914914914914 	299.9999999999521 	2.111301240976225e-11 	101324.9999999986
1.167417417417417 	299.999999999956 	2.288108743360028e-11 	101324.9999999987
1.169919919919919 	300.0000000000088 	2.185708244515866e-11 	101324.9999999986
1.172422422422422 	300.0000000000425 	2.2789807548348e-11 	101324.9999999985
1.174924924924925 	299.9999999999903 	2.14263378498856e-11 	101324.9999999984
1.177427427427427 	299.9999999999568 	2.239062494011597e-11 	101324.9999999985
1.179929929929929 	300.0000000000064 	2.337256790503224e-11 	101324.9999999985
1.182432432432432 	300.0000000000373 	2.105772318109092e-11 	101324.9999999984
1.184934934934934 	300.0000000000042 	2.202043307301516e-11 	101324.9999999985
1.187437437437437 	299.999999999979 	2.122998696630126e-11 	101324.9999999984
1.189939939939939 	299.9999999999733 	2.256315469286984e-11 	101324.9999999981
1.192442442442442 	299.9999999999358 	2.151779492924327e-11 	101324.9999999981
1.194944944944944 	299.999999999937 	2.284447333256458e-11 	101324.9999999983
1.197447447447447 	299.9999999999957 	2.192915267409544e-11 	101324.9999999984
1.199949949949949 	300.0000000000138 	2.180117951371887e-11 	101324.9999999984
1.202452452452452 	299.9999999999571 	2.302421499955847e-11 	101324.9999999983
1.204954954954955 	299.9999999999477 	2.177685783154991e-11 	101324.999999998
1.207457457457457 	299.9999999999777 	2.307298132311752e-11 	101324.9999999978
1.20995995995996 	299.9999999999735 	2.198521407801709e-11 	101324.999999998
1.212462462462462 	299.9999999999843 	2.34876852655058e-11 	101324.9999999982
1.214964964964964 	299.9999999999866 	2.246489929938815e-11 	101324.9999999983
1.217467467467467 	299.9999999999797 	2.350858748520883e-11 	101324.9999999985
1.219969969969969 	299.9999999999669 	2.267109090981217e-11 	101324.9999999986
1.222472472472472 	300.0000000000175 	2.303836765577594e-11 	101324.9999999987
1.224974974974975 	300.0000000000452 	2.366711252212177e-11 	101324.9999999988
1.227477477477477 	299.999999999996 	2.1885601093104e-11 	101324.9999999987
1.229979979979979 	299.999999999981 	2.316518249160362e-11 	101324.9999999986
1.232482482482482 	299.9999999999515 	2.164119308490936e-11 	101324.9999999989
1.234984984984984 	299.9999999999488 	2.316502542939088e-11 	101324.999999999
1.237487487487487 	299.9999999999782 	2.202441343181567e-11 	101324.9999999989
1.239989989989989 	299.9999999999857 	2.328828564232232e-11 	101324.9999999988
1.242492492492492 	300.0000000000211 	2.392516335410984e-11 	101324.999999999
1.244994994994994 	299.9999999999897 	2.200668434008458e-11 	101324.9999999992
1.247497497497497 	299.9999999999955 	2.286281272681573e-11 	101324.9999999994
1.249999999999999 	300.0000000002585 	2.173535597729307e-11 	101324.9999999997
