-1.25 	300 	0.1183339639037781 	101277.4471741852
-1.247497497497497 	299.9571218952876 	0.1190721447509323 	101275.3250348574
-1.244994994994995 	299.9574486810632 	0.1224736348592537 	101274.6981678593
-1.242492492492492 	299.9575673264552 	0.123413339275975 	101274.8435077238
-1.23998998998999 	299.9584004799008 	0.120039430916332 	101275.8296018546
-1.237487487487487 	299.9601183824665 	0.1152747774346831 	101277.8596162017
-1.234984984984985 	299.9626037895626 	0.1080640247009635 	101280.7968520822
-1.232482482482482 	299.9657770872961 	0.09887909195878716 	101284.5471067097
-1.22997997997998 	299.9696132473919 	0.08783094576842208 	101289.0808824156
-1.227477477477477 	299.9739674609403 	0.07521080267489824 	101294.2271424538
-1.224974974974975 	299.9787371152023 	0.0614009509073867 	101299.864642341
-1.222472472472472 	299.9838758433187 	0.04654086716013871 	101305.9386436611
-1.21996996996997 	299.9893197841878 	0.03082502546245893 	101312.3737069123
-1.217467467467467 	299.9949443205537 	0.01455170600969719 	101319.0225418156
-1.214964964964965 	300.0006373641206 	0.008321653725664012 	101325.7526927173
-1.212462462462462 	300.0063585181967 	0.01846968684788061 	101332.516391067
-1.20995995995996 	300.0119971844958 	0.03471015615222085 	101339.1829189202
-1.207457457457457 	300.0173979228566 	0.05034228105974678 	101345.5684514108
-1.204954954954955 	300.0224979058049 	0.06512877174044968 	101351.5986407458
-1.202452452452452 	300.0272219545176 	0.07880228958318533 	101357.1845814587
-1.19994994994995 	300.0314344489428 	0.09093813939431725 	101362.1658446968
-1.197447447447447 	300.035031640667 	0.1013090838160443 	101366.4196536043
-1.194944944944945 	300.0379693900524 	0.109803774725261 	101369.8937634887
-1.192442442442442 	300.0402134585873 	0.1162874456365242 	101372.5476330653
-1.18993993993994 	300.041736975714 	0.1206848730396364 	101374.3493984102
-1.187437437437437 	300.0425213888032 	0.1229101365858696 	101375.2771172145
-1.184934934934935 	300.042520350827 	0.1228677034093123 	101375.2759011088
-1.182432432432432 	300.0416907784452 	0.1204827081374575 	101374.2949193253
-1.17992992992993 	300.0400473727464 	0.1157579976141131 	101372.3515824415
-1.177427427427427 	300.0376523992185 	0.1088546354654523 	101369.5194149809
-1.174924924924925 	300.0345765344429 	0.09995489810870689 	101365.8821172761
-1.172422422422422 	300.0308782990694 	0.08924184061434771 	101361.508948388
-1.16991991991992 	300.0266227746065 	0.07693702235602562 	101356.476944591
-1.167417417417417 	300.0218866782668 	0.0632436416938995 	101350.8768892811
-1.164914914914915 	300.0167540920052 	0.04839457887098902 	101344.8082231451
-1.162412412412412 	300.0113143170142 	0.03266358538143408 	101338.3766355212
-1.15990990990991 	300.0056902424979 	0.01640283134829765 	101331.7274383132
-1.157407407407407 	299.9999928980536 	0.008208637538612121 	101324.9919279365
-1.154904904904904 	299.9942858437005 	0.01657377075555628 	101318.2452660334
-1.152402402402403 	299.9886441827662 	0.03287562093325935 	101311.5761858948
-1.1498998998999 	299.9831704238902 	0.04866541271301117 	101305.1058918857
-1.147397397397397 	299.9779886017373 	0.06362979950958006 	101298.9809481624
-1.144894894894895 	299.9732287770919 	0.07740414706797796 	101293.3550243802
-1.142392392392392 	299.9689896285339 	0.08968747705206587 	101288.3447081183
-1.13988988988989 	299.9653410433098 	0.1002398078270273 	101284.0324932959
-1.137387387387387 	299.962329238916 	0.1089351315106185 	101280.4729818619
-1.134884884884885 	299.959993242343 	0.1156717488635875 	101277.7122116896
-1.132382382382382 	299.9583827265627 	0.1203088027988807 	101275.8087929988
-1.12987987987988 	299.9575420054611 	0.1227440929781836 	101274.8151761384
-1.127377377377377 	299.9574938226758 	0.1228420375440415 	101274.758197696
-1.124874874874875 	299.9582611350769 	0.1205881657043294 	101275.6649290003
-1.122372372372372 	299.9598306150937 	0.1160806837602949 	101277.5196404711
-1.11986986986987 	299.9621454140322 	0.1094112877941224 	101280.2552293614
-1.117367367367367 	299.9651445475279 	0.1007615895882987 	101283.7996482059
-1.114864864864865 	299.9687704493703 	0.09028104040503712 	101288.084906099
-1.112362362362362 	299.9729509609974 	0.07814967313094288 	101293.0258248816
-1.10985985985986 	299.9776294067283 	0.06462749669680011 	101298.5554535152
-1.107357357357357 	299.9827174778103 	0.04993620093801727 	101304.5695169805
-1.104854854854855 	299.9880968769613 	0.03437258897269327 	101310.9282103647
-1.102352352352353 	299.9936576335134 	0.01825955945167765 	101317.5015699153
-1.09984984984985 	299.9993085438809 	0.007866942012725637 	101324.1818423194
-1.097347347347347 	300.004990202837 	0.01451539476628478 	101330.8987628941
-1.094844844844845 	300.0106331289726 	0.03075580973103541 	101337.5702499655
-1.092342342342342 	300.016102095877 	0.04655656018312528 	101344.036373425
-1.08983983983984 	300.0212717250409 	0.06154146002837111 	101350.148848899
-1.087337337337337 	300.0260414635952 	0.07535539686200297 	101355.7887706122
-1.084834834834835 	300.0303231347757 	0.08770891763915251 	101360.851757188
-1.082332332332332 	300.0340482783604 	0.09847476906786436 	101365.2568431628
-1.07982982982983 	300.0371740190644 	0.1075256418677065 	101368.9532394765
-1.077327327327327 	300.0396379507912 	0.1146562465419057 	101371.8670736054
-1.074824824824825 	300.0413821990936 	0.1196772712913932 	101373.9298909789
-1.072322322322323 	300.0423508882288 	0.1224039769379476 	101375.0755321816
-1.06981981981982 	300.0425022465836 	0.1227992934178812 	101375.254547809
-1.067317317317317 	300.0418397341621 	0.1209200144804059 	101374.4711292775
-1.064814814814815 	300.040404384162 	0.1167850022212821 	101372.7738063038
-1.062312312312312 	300.0382271940622 	0.1105102195274354 	101370.1991963338
-1.05980980980981 	300.0353493572582 	0.102185079824821 	101366.796051153
-1.057307307307307 	300.0318146478136 	0.09194910871146653 	101362.616231135
-1.054804804804805 	300.0276802978466 	0.08003022855609068 	101357.7274799597
-1.052302302302302 	300.0230325939417 	0.0665920473305926 	101352.2318779676
-1.0497997997998 	300.0179735755664 	0.05193517165383824 	101346.2501543926
-1.047297297297297 	300.0125947677425 	0.03636089346180434 	101339.8905772095
-1.044794794794795 	300.0070031902455 	0.0201655644539269 	101333.2797340082
-1.042292292292292 	300.001297367422 	0.007422046422850032 	101326.5341345981
-1.03978978978979 	299.9955590614265 	0.01290578888636189 	101319.7504369451
-1.037287287287287 	299.9898838879907 	0.02929810093731557 	101313.0416899038
-1.034784784784785 	299.9843853554555 	0.04514842677725348 	101306.5420361449
-1.032282282282283 	299.9791788268867 	0.06019709047404728 	101300.3878267556
-1.02977977977978 	299.974363514691 	0.07412737478092368 	101294.6962795349
-1.027277277277277 	299.9700098879275 	0.08674202467392134 	101289.5505916776
-1.024774774774775 	299.9661959594997 	0.09778258919761898 	101285.0429481633
-1.022272272272272 	299.9629987474538 	0.1070187683634094 	101281.2642766859
-1.01976976976977 	299.9604885997188 	0.1142684172710978 	101278.2976723519
-1.017267267267267 	299.9587284593878 	0.1193187246055697 	101276.2174380688
-1.014764764764765 	299.9577571654183 	0.1221340566630661 	101275.0694765559
-1.012262262262262 	299.9575694258935 	0.1226487607494402 	101274.8475867875
-1.00975975975976 	299.9581674241825 	0.1208892813221595 	101275.554242832
-1.007257257257257 	299.9595399312584 	0.1169383381994285 	101277.176166524
-1.004754754754755 	299.9616628092015 	0.1107903822961183 	101279.6849420257
-1.002252252252252 	299.964498026461 	0.1026113456780617 	101283.0356006756
-0.9997497497497498 	299.9679909555302 	0.0925573118549938 	101287.163689722
-0.9972472472472473 	299.9720477601686 	0.08080437133803541 	101291.9583706541
-0.9947447447447449 	299.9766070483381 	0.06762907343829905 	101297.3471170024
-0.9922422422422421 	299.9815851583913 	0.05322229445882364 	101303.2311540378
-0.9897397397397399 	299.9868894873273 	0.03785971203397769 	101309.5010276943
-0.9872372372372376 	299.9924138359173 	0.02188893043722041 	101316.0312925865
-0.9847347347347346 	299.9980477201487 	0.006658704088659933 	101322.6913687138
-0.9822322322322323 	300.0037139914215 	0.01080198485355215 	101329.3900335524
-0.9797297297297296 	300.0093287664578 	0.0269894053816127 	101336.0281650044
-0.9772272272272275 	300.0147815607461 	0.0427606988357682 	101342.475078086
-0.9747247247247248 	300.0199707083059 	0.05775625807426595 	101348.6105721848
-0.9722222222222224 	300.0248089298593 	0.07177539965508176 	101354.3314020514
-0.9697197197197196 	300.0292146009117 	0.08450656374962795 	101359.5409692655
-0.9672172172172175 	300.0331030921497 	0.09572626401182259 	101364.1391755715
-0.9647147147147147 	300.0363949903884 	0.1052633836440268 	101368.032012678
-0.9622122122122124 	300.0390209475549 	0.1128356150481857 	101371.137449441
-0.9597097097097099 	300.0409279501099 	0.1183532140595122 	101373.3927278144
-0.9572072072072073 	300.0420740732256 	0.1216285056866038 	101374.7482039971
-0.9547047047047047 	300.0424302469434 	0.1226070603604922 	101375.1694612868
-0.9522022022022023 	300.04198480949 	0.1213327695468873 	101374.6427027954
-0.9496996996996998 	300.0407497878243 	0.1177518924714593 	101373.1822922397
-0.9471971971971973 	300.0387559983461 	0.1120332836441794 	101370.8245823073
-0.9446946946946947 	300.0360487090661 	0.1042115358852527 	101367.6230999176
-0.9421921921921923 	300.0326771514494 	0.09444028932198853 	101363.6361972305
-0.93968968968969 	300.0286990889211 	0.08296560298759835 	101358.9321927038
-0.9371871871871872 	300.0241847118048 	0.06989042979727027 	101353.5942084536
-0.9346846846846848 	300.019219305407 	0.05555118592823317 	101347.7231241414
-0.9321821821821823 	300.0138981492249 	0.04014541210039933 	101341.4316377378
-0.9296796796796799 	300.0083310926607 	0.02400169520340374 	101334.8497316892
-0.9271771771771771 	300.0026305831066 	0.007538147964753427 	101328.1103117395
-0.9246746746746748 	299.9968933963052 	0.01011504169438402 	101321.3278733345
-0.9221721721721724 	299.99120660013 	0.02545105934412923 	101314.6053244205
-0.9196696696696698 	299.9856726988954 	0.04142082749884002 	101308.0637821481
-0.9171671671671672 	299.9803955618283 	0.05671078992188071 	101301.8260713741
-0.9146646646646649 	299.9754682972875 	0.07093297047750648 	101296.0021120246
-0.9121621621621623 	299.9709846324683 	0.08391320692979021 	101290.7027001553
-0.9096596596596597 	299.9670405338471 	0.09529079435704339 	101286.0411888228
-0.9071571571571573 	299.9637177638359 	0.1049108932766936 	101282.1140862788
-0.9046546546546547 	299.9610795782946 	0.1125810138105262 	101278.9961722958
-0.9021521521521524 	299.9591717112211 	0.1180691706160903 	101276.741334239
-0.8996496496496498 	299.9580223568998 	0.1213832632469786 	101275.3829264068
-0.8971471471471473 	299.9576542270419 	0.1223963719104469 	101274.9478682765
-0.894644644644645 	299.958078583022 	0.1211663462738395 	101275.4493044196
-0.892142142142142 	299.9592811375759 	0.1177197201104881 	101276.8704021219
-0.8896396396396397 	299.9612344697719 	0.1120538540041625 	101279.1787762519
-0.8871371371371374 	299.9638986790181 	0.1043687925309104 	101282.3273243052
-0.8846346346346349 	299.9672213978465 	0.09474563289826304 	101286.2542413376
-0.8821321321321324 	299.9711441145669 	0.08339952681031962 	101290.8903860557
-0.8796296296296297 	299.9755947421088 	0.07055785437786748 	101296.1506738931
-0.8771271271271271 	299.980479308368 	0.05640885086080134 	101301.9240787968
-0.8746246246246248 	299.9857023223297 	0.04131758056034848 	101308.0977770618
-0.8721221221221224 	299.9911557043065 	0.02555364546982743 	101314.5441018483
-0.8696196196196196 	299.9967256812557 	0.009420373705262837 	101321.1285314275
-0.8671171171171175 	300.0023393014923 	0.009420601634465182 	101327.7648916585
-0.8646146146146148 	300.0079281310269 	0.02296271031082883 	101334.3722671162
-0.8621121121121121 	300.0134006162961 	0.03877277608042942 	101340.8423770441
-0.8596096096096097 	300.018660007578 	0.05395285592958564 	101347.0608633354
-0.857107107107107 	300.0235955046455 	0.06824049828380122 	101352.8966254854
-0.8546046046046049 	300.028107541259 	0.08127675426861199 	101358.2319282627
-0.8521021021021022 	300.0321168948651 	0.09287985842930588 	101362.9730171262
-0.8495995995995997 	300.0355482315027 	0.1027810272250778 	101367.0307044476
-0.8470970970970974 	300.0383379797107 	0.1108251670718617 	101370.3298219221
-0.8445945945945946 	300.0404300391151 	0.1168760546173649 	101372.8039080683
-0.8420920920920922 	300.0417614627235 	0.1206925433808182 	101374.3785332471
-0.8395895895895897 	300.0422997015695 	0.1222636910560456 	101375.0151199752
-0.8370870870870872 	300.0420469486267 	0.1215166401780367 	101374.7162123988
-0.8345845845845846 	300.041020196943 	0.1185314439171809 	101373.5020941765
-0.8320820820820823 	300.0392411449534 	0.1134183320523214 	101371.3983098047
-0.8295795795795798 	300.0367319590774 	0.1061371598019437 	101368.431104538
-0.8270770770770772 	300.0335164375887 	0.09685116013544982 	101364.6286925617
-0.8245745745745746 	300.0296571340462 	0.08570511417231458 	101360.065096713
-0.8220720720720721 	300.025235814916 	0.0729026355252531 	101354.8371082834
-0.8195695695695699 	300.0203350631357 	0.05873379969135958 	101349.0424050701
-0.817067067067067 	300.0150528494174 	0.04345271828199512 	101342.7969196727
-0.8145645645645651 	300.0095094720078 	0.02743241501393961 	101336.2429355801
-0.8120620620620621 	300.003826633972 	0.01103514320528204 	101329.5243514252
-0.8095595595595597 	299.9981304475152 	0.009132425428792158 	101322.7903169631
-0.8070570570570572 	299.9924902023901 	0.02177283825775194 	101316.1227153085
-0.8045545545545546 	299.9869598919266 	0.03776338137642725 	101309.5853682239
-0.8020520520520523 	299.9816131706668 	0.0532046001396828 	101303.265333954
-0.7995495495495494 	299.9765550452429 	0.06779601015388104 	101297.2866584569
-0.7970470470470474 	299.9719213090273 	0.08118026153970817 	101291.8098273712
-0.7945445445445446 	299.9678473952591 	0.09297584189758411 	101286.9948385412
-0.7920420420420423 	299.964417869571 	0.102908870285547 	101282.9415541038
-0.7895395395395397 	299.961677343484 	0.1108228845397247 	101279.7026712594
-0.7870370370370371 	299.9596424171434 	0.1166995118375022 	101277.2976966878
-0.7845345345345348 	299.9583150963834 	0.1205378507894122 	101275.7289455267
-0.7820320320320323 	299.9577211836132 	0.1222167372704322 	101275.0270406625
-0.7795295295295296 	299.9579287085662 	0.1216246902597754 	101275.2722488354
-0.7770270270270272 	299.9589605535598 	0.1186374884712408 	101276.4915942981
-0.7745245245245247 	299.9607998244623 	0.1133047520626766 	101278.6651647254
-0.7720220220220222 	299.9633627850407 	0.1059122614163365 	101281.6940455243
-0.7695195195195199 	299.9665467440423 	0.09672302112922923 	101285.4569449951
-0.767017017017017 	299.9702584728374 	0.08598776750182642 	101289.8437154581
-0.7645145145145147 	299.9744422077123 	0.07386796693272252 	101294.7885020691
-0.7620120120120122 	299.9790847288764 	0.06040559063490258 	101300.2757524473
-0.7595095095095097 	299.9841795152544 	0.04565792246337743 	101306.2977988804
-0.7570070070070072 	299.9896690457894 	0.02979607068869851 	101312.7867407667
-0.7545045045045048 	299.9954242753172 	0.01318662227047663 	101319.5900978232
-0.7520020020020022 	300.0012559309764 	0.008515938061873712 	101326.4841435916
-0.7494994994994997 	300.0069474531513 	0.02004918314309247 	101333.2128806969
-0.7469969969969972 	300.0123198985942 	0.03557989164806936 	101339.5646933473
-0.7444944944944945 	300.0172919732343 	0.04999097020736973 	101345.4434029691
-0.7419919919919924 	300.0218884457894 	0.06333605878737272 	101350.8782478182
-0.7394894894894897 	300.0261902925191 	0.07582034542190734 	101355.9648981343
-0.7369869869869872 	300.030257394722 	0.08759345510714928 	101360.774153764
-0.7344844844844846 	300.0340659446159 	0.09857759917594437 	101365.2778411241
-0.7319819819819822 	300.0374862776446 	0.1084036894756643 	101369.3225881274
-0.7294794794794797 	300.0403034463223 	0.1164662092529011 	101372.6541869262
-0.7269769769769773 	300.0422675840988 	0.122062957476324 	101374.9770718329
-0.7244744744744747 	300.0431557142992 	0.1245687601978712 	101376.0274651173
-0.721971971971972 	300.0428280390348 	0.1235940567444974 	101375.6399574126
-0.7194694694694695 	300.0412653947378 	0.119091433528935 	101373.7921421734
-0.7169669669669674 	300.0385820971212 	0.1113882202750328 	101370.6190667219
-0.7144644644644647 	300.0350087496678 	0.1011393120789946 	101366.3934589141
-0.711961961961962 	300.0308521948226 	0.08921404989576519 	101361.4782981388
-0.7094594594594597 	300.0264422721977 	0.07654673001368127 	101356.2636848467
-0.7069569569569573 	300.0220784062552 	0.0639889573702133 	101351.1036985922
-0.7044544544544545 	300.0179913765036 	0.05220470915301546 	101346.271206171
-0.7019519519519523 	300.014331111078 	0.04163170672208735 	101341.9434454333
-0.6994494494494495 	300.0111741073035 	0.03249728817966931 	101338.2108185909
-0.6969469469469471 	300.0085385671628 	0.02485995532186923 	101335.0948025479
-0.6944444444444446 	300.0064010977734 	0.01865702384672928 	101332.5677033918
-0.6919419419419421 	300.0047122288369 	0.01374924203836418 	101330.5710057112
-0.6894394394394396 	300.0034092697687 	0.009957965222295327 	101329.0305737097
-0.6869369369369374 	300.0024259535447 	0.007093186331304853 	101327.8680505168
-0.6844344344344344 	300.0016989504763 	0.004972587988160437 	101327.0085576008
-0.6819319319319321 	300.0011717088038 	0.003432874628403102 	101326.3852331581
-0.6794294294294296 	300.0007962317415 	0.002335114499487479 	101325.9413313819
-0.6769269269269272 	300.0005334082652 	0.001565860859878558 	101325.630612914
-0.6744244244244245 	300.0003524377584 	0.00103560727011766 	101325.4166637247
-0.6719219219219222 	300.0002297702374 	0.0006758036630430589 	101325.2716422564
-0.6694194194194195 	300.0001478654011 	0.0004353137430845944 	101325.1748116489
-0.6669169169169172 	300.0000939639378 	0.000276886187243591 	101325.1110875187
-0.6644144144144146 	300.0000589830101 	0.0001739670977385914 	101325.0697319251
-0.661911911911912 	300.0000365851006 	0.000108004040448816 	101325.0432523277
-0.6594094094094097 	300.000022429746 	6.627524433658957e-05 	101325.0265173416
-0.656906906906907 	300.000013595936 	4.020912840293167e-05 	101325.0160737237
-0.6544044044044046 	300.0000081503554 	2.412549726512072e-05 	101325.0096357435
-0.6519019019019021 	300.0000048332383 	1.431911326737609e-05 	101325.005714074
-0.6493993993993996 	300.0000028359552 	8.409069146143284e-06 	101325.0033527572
-0.6468968968968971 	300.0000016468549 	4.887317574030972e-06 	101325.0019469386
-0.6443943943943946 	300.000000946641 	2.811750910566266e-06 	101325.0011191531
-0.6418918918918921 	300.0000005387631 	1.601610416774493e-06 	101325.0006369456
-0.6393893893893897 	300.0000003036508 	9.034289901221388e-07 	101325.0003589836
-0.6368868868868871 	300.0000001694881 	5.047440466281618e-07 	101325.0002003947
-0.6343843843843846 	300.0000000937337 	2.793595101532737e-07 	101325.0001108184
-0.6318818818818821 	300.000000051318 	1.531964122591903e-07 	101325.0000607185
-0.6293793793793795 	300.0000000278926 	8.325231762819792e-08 	101325.0000329667
-0.6268768768768773 	300.0000000150281 	4.484113135423371e-08 	101325.0000177389
-0.6243743743743745 	300.0000000079851 	2.394246598664761e-08 	101325.0000094605
-0.6218718718718721 	300.0000000042405 	1.26740339402167e-08 	101325.000005001
-0.6193693693693696 	300.0000000021615 	6.654366888025996e-09 	101325.0000026199
-0.6168668668668671 	300.0000000011396 	3.463983092598005e-09 	101325.0000013594
-0.6143643643643645 	300.0000000006099 	1.790453752114641e-09 	101325.0000006981
-0.6118618618618621 	300.0000000002888 	9.174475012084195e-10 	101325.000000354
-0.6093593593593596 	300.0000000001426 	4.675410193705752e-10 	101325.0000001765
-0.6068568568568571 	300.0000000000643 	2.359027568427982e-10 	101325.0000000856
-0.6043543543543546 	299.9999999999985 	1.187423363151166e-10 	101325.0000000395
-0.6018518518518521 	299.9999999999862 	5.874901852699648e-11 	101325.0000000164
-0.5993493493493496 	299.9999999999576 	2.985239509368792e-11 	101325.0000000048
-0.5968468468468471 	299.9999999999648 	1.426773019808015e-11 	101324.999999999
-0.5943443443443446 	299.9999999999953 	8.449987486525092e-12 	101324.9999999962
-0.591841841841842 	299.9999999999617 	3.149928243107239e-12 	101324.9999999948
-0.5893393393393397 	299.9999999999497 	3.671266378199303e-12 	101324.999999994
-0.5868368368368371 	299.9999999999891 	1.425125610529452e-12 	101324.9999999938
-0.5843343343343346 	300.0000000000017 	3.472072800753721e-12 	101324.9999999939
-0.5818318318318321 	300.0000000000286 	2.13763516143899e-12 	101324.9999999942
-0.5793293293293297 	299.9999999999902 	2.637782238897584e-12 	101324.9999999942
-0.5768268268268271 	300.0000000000007 	1.574853704796777e-12 	101324.9999999941
-0.5743243243243245 	300.0000000000206 	1.744747441023412e-12 	101324.9999999939
-0.5718218218218221 	300.0000000000195 	7.935995508250589e-13 	101324.9999999935
-0.5693193193193196 	300.0000000000428 	5.904440413108669e-13 	101324.9999999931
-0.5668168168168171 	299.9999999999877 	1.114706778592507e-12 	101324.9999999931
-0.5643143143143147 	299.9999999999499 	6.390327895228023e-13 	101324.9999999929
-0.5618118118118121 	300.0000000000131 	1.639560596316274e-12 	101324.9999999929
-0.5593093093093094 	300.0000000000329 	8.985601286629963e-13 	101324.9999999929
-0.5568068068068072 	300.0000000000149 	2.645585885065261e-12 	101324.9999999929
-0.5543043043043046 	300.0000000000134 	2.508876650002105e-12 	101324.9999999929
-0.551801801801802 	299.9999999999559 	3.36775410727246e-12 	101324.9999999929
-0.5492992992992995 	299.9999999999946 	2.123208597662097e-12 	101324.9999999928
-0.5467967967967969 	300.0000000000101 	3.106771758192655e-12 	101324.9999999929
-0.5442942942942947 	300.0000000000075 	2.585531458555123e-12 	101324.9999999928
-0.5417917917917919 	299.9999999999613 	3.951158151420341e-12 	101324.9999999925
-0.5392892892892895 	299.9999999999351 	1.846688443319333e-12 	101324.9999999922
-0.536786786786787 	299.9999999999565 	3.509863265133595e-12 	101324.9999999923
-0.5342842842842846 	299.9999999999617 	1.158583467037265e-12 	101324.9999999925
-0.531781781781782 	299.9999999999379 	3.942938235020773e-12 	101324.9999999928
-0.5292792792792794 	299.9999999999333 	1.856480811943796e-12 	101324.999999993
-0.526776776776777 	299.9999999999175 	4.499978541877737e-12 	101324.999999993
-0.5242742742742745 	299.9999999999782 	3.374887497129215e-12 	101324.9999999929
-0.521771771771772 	300.000000000014 	6.039070575486414e-12 	101324.9999999931
-0.5192692692692695 	299.9999999999641 	4.174561980244514e-12 	101324.9999999933
-0.516766766766767 	300.0000000000044 	5.829835654965436e-12 	101324.9999999934
-0.5142642642642645 	299.9999999999736 	4.157283544900623e-12 	101324.9999999932
-0.511761761761762 	299.9999999999543 	4.809531787935674e-12 	101324.9999999929
-0.5092592592592596 	299.9999999999726 	3.42050120989218e-12 	101324.9999999929
-0.506756756756757 	299.9999999999424 	3.651639646365632e-12 	101324.9999999926
-0.5042542542542544 	299.9999999999933 	2.568042971906455e-12 	101324.9999999924
-0.5017517517517521 	300.0000000000279 	3.67303256520388e-12 	101324.9999999922
-0.4992492492492494 	300.0000000000319 	1.26980777646218e-12 	101324.9999999922
-0.496746746746747 	299.9999999999871 	2.984115863005216e-12 	101324.9999999924
-0.4942442442442445 	299.9999999999434 	8.176757491347989e-13 	101324.9999999925
-0.4917417417417421 	299.9999999999444 	2.648458354379527e-12 	101324.9999999927
-0.4892392392392395 	299.9999999999594 	7.004793554543002e-13 	101324.9999999929
-0.486736736736737 	299.9999999999615 	2.211307620701463e-12 	101324.9999999931
-0.4842342342342345 	299.9999999999289 	1.723698109901069e-12 	101324.9999999933
-0.481731731731732 	300.0000000000333 	2.366191678295944e-12 	101324.9999999932
-0.4792292292292296 	300.0000000000194 	1.777392906989631e-12 	101324.9999999929
-0.4767267267267268 	299.9999999999624 	3.251444150480941e-12 	101324.9999999928
-0.4742242242242246 	299.9999999999999 	2.381978507559406e-12 	101324.9999999927
-0.471721721721722 	299.99999999996 	3.715754618154728e-12 	101324.9999999925
-0.4692192192192195 	299.9999999999799 	1.571558242732104e-12 	101324.9999999923
-0.4667167167167169 	299.9999999999188 	2.360697741354224e-12 	101324.9999999921
-0.4642142142142145 	299.9999999999945 	1.818743745028415e-12 	101324.9999999921
-0.461711711711712 	300.0000000000155 	1.916272383338819e-12 	101324.9999999922
-0.4592092092092094 	300.0000000000074 	1.311621737789032e-12 	101324.999999992
-0.456706706706707 	300.0000000000463 	1.906763771816375e-12 	101324.9999999919
-0.4542042042042045 	299.9999999999445 	5.019271001873451e-13 	101324.9999999918
-0.451701701701702 	299.9999999999555 	1.74291625542745e-12 	101324.9999999918
-0.4491991991991995 	299.9999999999629 	7.500539922815475e-13 	101324.9999999919
-0.4466966966966969 	299.9999999999626 	2.081939793467254e-12 	101324.9999999922
-0.4441941941941945 	299.9999999999965 	6.903647858926156e-13 	101324.9999999924
-0.441691691691692 	299.9999999999619 	3.059585957399952e-12 	101324.9999999926
-0.4391891891891895 	299.9999999999898 	1.497083565401524e-12 	101324.9999999925
-0.436686686686687 	299.9999999999716 	3.880100995723343e-12 	101324.9999999925
-0.4341841841841846 	299.9999999999986 	2.44977865940411e-12 	101324.9999999924
-0.431681681681682 	299.999999999952 	3.77625335452144e-12 	101324.9999999924
-0.4291791791791794 	299.9999999999363 	9.523169055164662e-13 	101324.9999999923
-0.426676676676677 	299.9999999999178 	3.457107196464064e-12 	101324.9999999921
-0.4241741741741744 	299.9999999999683 	9.377052104874212e-13 	101324.9999999921
-0.421671671671672 	300.0000000000022 	3.324212126835055e-12 	101324.9999999922
-0.4191691691691694 	300.0000000000454 	1.423990647936396e-12 	101324.9999999921
-0.4166666666666669 	300.0000000000529 	2.770870722462644e-12 	101324.9999999919
-0.4141641641641645 	299.9999999999453 	1.7555293890978e-12 	101324.9999999917
-0.411661661661662 	300.0000000000024 	2.47612241530729e-12 	101324.9999999917
-0.4091591591591594 	300.0000000000063 	1.558190686179323e-12 	101324.9999999917
-0.406656656656657 	299.9999999999513 	2.242646291386636e-12 	101324.9999999919
-0.4041541541541545 	300.0000000000108 	5.704681782414581e-13 	101324.9999999918
-0.401651651651652 	299.9999999999326 	2.686056294312948e-12 	101324.9999999918
-0.3991491491491494 	300.0000000000009 	1.279241570717929e-12 	101324.9999999916
-0.396646646646647 	299.9999999999592 	4.0981299554088e-12 	101324.9999999919
-0.3941441441441444 	299.9999999999838 	1.604677940014052e-12 	101324.9999999919
-0.3916416416416419 	299.9999999999415 	4.615468791828988e-12 	101324.9999999919
-0.3891391391391395 	299.9999999999588 	1.645388948500194e-12 	101324.9999999921
-0.3866366366366368 	299.9999999999616 	4.024703384272301e-12 	101324.9999999921
-0.3841341341341344 	299.9999999999956 	2.605185288364236e-12 	101324.9999999922
-0.381631631631632 	299.9999999999537 	3.463702886724611e-12 	101324.9999999919
-0.3791291291291294 	300.0000000000003 	2.753525189582423e-12 	101324.9999999919
-0.3766266266266269 	300.000000000016 	2.741192654991189e-12 	101324.9999999921
-0.3741241241241244 	300.0000000000211 	3.936442460155136e-12 	101324.9999999924
-0.371621621621622 	300.0000000000163 	2.499833747081377e-12 	101324.9999999922
-0.3691191191191194 	300.0000000000105 	5.480710240831562e-12 	101324.9999999923
-0.366616616616617 	300.0000000000082 	2.310356360377815e-12 	101324.9999999923
-0.3641141141141143 	299.9999999999718 	5.047348329849886e-12 	101324.9999999924
-0.3616116116116119 	299.9999999999544 	2.88438589507122e-12 	101324.9999999927
-0.3591091091091095 	299.9999999999847 	4.512624306102264e-12 	101324.9999999925
-0.356606606606607 	299.9999999999773 	4.189152468139877e-12 	101324.9999999923
-0.3541041041041044 	299.9999999999918 	4.13770583699565e-12 	101324.9999999922
-0.3516016016016019 	300.0000000000113 	4.850712199671573e-12 	101324.9999999924
-0.3490990990990994 	299.9999999999936 	3.418319049281811e-12 	101324.9999999921
-0.346596596596597 	300.0000000000339 	5.689739912993521e-12 	101324.9999999921
-0.3440940940940944 	300.0000000000407 	3.075122028103359e-12 	101324.9999999924
-0.3415915915915919 	300.0000000000191 	5.909560449559477e-12 	101324.9999999927
-0.3390890890890895 	299.9999999999798 	4.098768383351781e-12 	101324.9999999928
-0.3365865865865869 	300.0000000000146 	5.108850523945589e-12 	101324.9999999926
-0.3340840840840844 	299.9999999999978 	3.86758019779061e-12 	101324.9999999925
-0.3315815815815819 	300.0000000000184 	4.041051208518885e-12 	101324.9999999928
-0.3290790790790794 	300.0000000000178 	3.272775679002782e-12 	101324.9999999926
-0.3265765765765769 	299.9999999999381 	3.915751288051895e-12 	101324.9999999923
-0.3240740740740744 	299.9999999999954 	2.627193313376944e-12 	101324.9999999924
-0.3215715715715718 	300.000000000006 	4.711947546409104e-12 	101324.9999999923
-0.3190690690690695 	299.999999999942 	2.825856390547413e-12 	101324.9999999921
-0.3165665665665668 	299.9999999999907 	4.533152467243299e-12 	101324.9999999923
-0.3140640640640644 	300.0000000000017 	2.325310332194637e-12 	101324.9999999924
-0.311561561561562 	299.9999999999375 	6.02992351335179e-12 	101324.9999999922
-0.3090590590590593 	299.9999999999924 	2.109155355678048e-12 	101324.9999999922
-0.3065565565565568 	300.0000000000033 	7.236646735225543e-12 	101324.9999999922
-0.3040540540540545 	300.0000000000021 	1.620142037172199e-12 	101324.9999999923
-0.3015515515515518 	300.000000000031 	6.148514109353482e-12 	101324.9999999924
-0.2990490490490494 	299.9999999999545 	2.449138064897325e-12 	101324.9999999924
-0.2965465465465469 	299.9999999999857 	4.031439353476975e-12 	101324.9999999922
-0.2940440440440444 	299.9999999999935 	2.767370774531107e-12 	101324.9999999923
-0.2915415415415418 	300.000000000005 	2.928075178719869e-12 	101324.999999992
-0.2890390390390395 	300.000000000007 	3.651194178086302e-12 	101324.9999999921
-0.2865365365365368 	299.999999999984 	2.548813499405781e-12 	101324.999999992
-0.2840340340340343 	299.9999999999983 	5.070685715087244e-12 	101324.9999999919
-0.2815315315315318 	299.9999999999338 	2.684669839403286e-12 	101324.999999992
-0.2790290290290295 	299.999999999965 	4.752965388740124e-12 	101324.9999999919
-0.2765265265265269 	300.000000000003 	3.352810113677795e-12 	101324.9999999917
-0.2740240240240244 	300.0000000000224 	4.540148664283424e-12 	101324.9999999916
-0.2715215215215219 	300.0000000000099 	4.684387686412385e-12 	101324.9999999915
-0.2690190190190194 	299.9999999999501 	4.081297523788666e-12 	101324.9999999917
-0.2665165165165169 	299.9999999999981 	4.260766492334153e-12 	101324.9999999917
-0.2640140140140144 	299.9999999999758 	2.46114859571579e-12 	101324.9999999917
-0.2615115115115119 	300.0000000000022 	4.152864296268124e-12 	101324.9999999918
-0.2590090090090094 	299.9999999999411 	1.957088840615093e-12 	101324.9999999921
-0.2565065065065068 	299.9999999999932 	3.187929625188646e-12 	101324.9999999923
-0.2540040040040044 	299.9999999999961 	3.397061439869595e-12 	101324.9999999927
-0.2515015015015019 	300.0000000000326 	3.068690815253153e-12 	101324.9999999925
-0.2489989989989994 	300.0000000000348 	5.488585105500433e-12 	101324.9999999925
-0.2464964964964968 	299.9999999999915 	3.677926426715015e-12 	101324.9999999926
-0.2439939939939944 	299.9999999999951 	7.045798971988594e-12 	101324.9999999932
-0.2414914914914919 	299.9999999999691 	2.473551809851311e-12 	101324.9999999934
-0.2389889889889893 	300.0000000000027 	6.521223902384072e-12 	101324.9999999933
-0.2364864864864869 	300.0000000000219 	2.744413137257925e-12 	101324.9999999932
-0.2339839839839843 	299.999999999942 	6.682769433652534e-12 	101324.999999993
-0.2314814814814819 	299.9999999999848 	2.746907313097726e-12 	101324.999999993
-0.2289789789789792 	299.9999999999292 	6.433064915000791e-12 	101324.9999999927
-0.2264764764764769 	299.9999999999544 	4.189238685841869e-12 	101324.9999999927
-0.2239739739739743 	299.999999999967 	5.796159479130315e-12 	101324.9999999928
-0.2214714714714718 	299.9999999999458 	4.83741774385336e-12 	101324.9999999928
-0.2189689689689693 	299.9999999999744 	3.64388531539542e-12 	101324.9999999927
-0.2164664664664669 	299.9999999999858 	4.681934131685815e-12 	101324.9999999926
-0.2139639639639643 	299.9999999999425 	2.317052099812015e-12 	101324.9999999925
-0.2114614614614618 	299.9999999999756 	2.698518879349394e-12 	101324.9999999925
-0.2089589589589593 	299.9999999999925 	2.074207930552418e-12 	101324.9999999927
-0.2064564564564568 	299.9999999999916 	1.664799610511044e-12 	101324.9999999928
-0.2039539539539543 	299.9999999999266 	2.63616151822615e-12 	101324.9999999929
-0.2014514514514518 	299.9999999999523 	3.427601197971737e-13 	101324.9999999929
-0.1989489489489494 	299.9999999999725 	3.543939923864127e-12 	101324.9999999929
-0.1964464464464468 	299.9999999999922 	6.705247330285647e-13 	101324.999999993
-0.1939439439439443 	299.9999999999913 	4.040745694760337e-12 	101324.9999999932
-0.1914414414414418 	299.9999999999326 	2.078301939792794e-12 	101324.9999999931
-0.1889389389389393 	300.0000000000048 	3.999675752806344e-12 	101324.9999999933
-0.1864364364364368 	300.0000000000329 	2.836287405727435e-12 	101324.999999993
-0.1839339339339343 	299.999999999978 	2.774463564371748e-12 	101324.9999999928
-0.1814314314314318 	299.9999999999962 	1.899564138525032e-12 	101324.9999999927
-0.1789289289289293 	299.9999999999123 	2.232654609614471e-12 	101324.9999999925
-0.1764264264264268 	299.9999999999827 	4.434473387852954e-13 	101324.9999999922
-0.1739239239239243 	299.999999999916 	1.797548200582639e-12 	101324.9999999924
-0.1714214214214218 	299.9999999999906 	1.280948196698657e-12 	101324.9999999922
-0.1689189189189193 	299.9999999999593 	2.925943464263374e-12 	101324.9999999922
-0.1664164164164168 	300.000000000005 	1.84094995401866e-12 	101324.9999999921
-0.1639139139139143 	299.999999999986 	5.766361945932431e-12 	101324.999999992
-0.1614114114114118 	300.0000000000211 	1.488762994571973e-12 	101324.9999999921
-0.1589089089089093 	299.9999999999962 	8.439853627735466e-12 	101324.9999999923
-0.1564064064064068 	299.9999999999819 	3.085452203661511e-12 	101324.9999999924
-0.1539039039039043 	299.9999999999923 	8.66686462624573e-12 	101324.9999999926
-0.1514014014014018 	300.0000000000212 	1.742675971817197e-12 	101324.999999993
-0.1488988988988993 	299.9999999999855 	8.792659544212132e-12 	101324.999999993
-0.1463963963963968 	300.0000000000011 	8.817242752369603e-13 	101324.9999999931
-0.1438938938938943 	299.9999999999621 	7.347621081991274e-12 	101324.9999999931
-0.1413913913913918 	299.9999999999384 	1.220700157174024e-12 	101324.9999999931
-0.1388888888888893 	299.9999999999836 	4.722111162284487e-12 	101324.9999999933
-0.1363863863863868 	299.9999999999067 	1.258518618991667e-12 	101324.9999999937
-0.1338838838838843 	299.9999999999326 	3.221723121713373e-12 	101324.9999999936
-0.1313813813813818 	299.9999999999965 	1.536969584106336e-12 	101324.9999999933
-0.1288788788788793 	299.9999999999675 	3.70669175712091e-12 	101324.9999999932
-0.1263763763763768 	299.9999999999744 	2.159227329318676e-12 	101324.999999993
-0.1238738738738743 	299.9999999999441 	4.429702479437405e-12 	101324.9999999933
-0.1213713713713717 	299.9999999999884 	1.618655823019828e-12 	101324.999999993
-0.1188688688688693 	300.0000000000068 	5.270484741031397e-12 	101324.999999993
-0.1163663663663668 	299.9999999999221 	1.275279312207754e-12 	101324.9999999929
-0.1138638638638643 	299.9999999999925 	5.394201898893702e-12 	101324.9999999928
-0.1113613613613618 	299.9999999999864 	4.644064071793317e-13 	101324.9999999927
-0.1088588588588592 	299.9999999999801 	5.645589420646815e-12 	101324.9999999927
-0.1063563563563568 	299.9999999999634 	5.091771935877474e-13 	101324.9999999926
-0.1038538538538543 	299.999999999978 	4.935115228195625e-12 	101324.9999999925
-0.1013513513513517 	300.0000000000111 	1.948104783341091e-12 	101324.9999999925
-0.09884884884884926 	299.9999999999545 	4.780267516566476e-12 	101324.9999999924
-0.09634634634634676 	299.9999999999112 	1.738547414149795e-12 	101324.9999999927
-0.09384384384384425 	299.999999999938 	2.918318547179117e-12 	101324.9999999926
-0.09134134134134177 	300.0000000000178 	1.532290402224149e-12 	101324.9999999928
-0.08883883883883925 	300.0000000000064 	2.805416029328632e-12 	101324.9999999926
-0.08633633633633674 	299.9999999999606 	2.173543722444816e-12 	101324.9999999925
-0.08383383383383426 	300.0000000000067 	2.830212360200363e-12 	101324.9999999927
-0.08133133133133173 	299.9999999999731 	2.913891993842251e-12 	101324.9999999927
-0.07882882882882926 	299.9999999999023 	1.995201527775875e-12 	101324.9999999927
-0.07632632632632676 	299.9999999999653 	1.803412621063022e-12 	101324.9999999928
-0.07382382382382424 	299.9999999999122 	1.819319429004239e-12 	101324.9999999928
-0.07132132132132173 	300.0000000000097 	1.8538415586282e-12 	101324.9999999927
-0.06881881881881925 	299.9999999999671 	2.4167346657584e-12 	101324.9999999924
-0.06631631631631671 	299.9999999999097 	1.883436228543092e-12 	101324.9999999926
-0.06381381381381425 	299.9999999999598 	1.574625927625441e-12 	101324.9999999923
-0.06131131131131173 	299.9999999999615 	1.182578448984805e-12 	101324.9999999924
-0.05880880880880923 	299.9999999999319 	9.939791432026531e-13 	101324.9999999922
-0.05630630630630672 	299.9999999999699 	1.11794811038524e-12 	101324.9999999924
-0.05380380380380424 	300.0000000000135 	1.45135262925429e-12 	101324.9999999923
-0.05130130130130173 	300.0000000000097 	1.907065104344629e-12 	101324.9999999922
-0.04879879879879922 	299.9999999999523 	1.945004623728268e-12 	101324.9999999924
-0.04629629629629672 	299.9999999999442 	9.735186275004312e-13 	101324.9999999928
-0.04379379379379422 	299.9999999999295 	1.258454647875065e-12 	101324.9999999928
-0.04129129129129173 	299.9999999999825 	6.102883283846033e-13 	101324.9999999928
-0.03878878878878922 	299.9999999999839 	5.220058371352647e-13 	101324.9999999929
-0.03628628628628671 	299.9999999999823 	6.866560857094102e-14 	101324.9999999928
-0.03378378378378422 	299.9999999999414 	4.189746801815374e-13 	101324.9999999928
-0.03128128128128172 	299.9999999999753 	3.574149840486143e-13 	101324.9999999926
-0.02877877877877922 	299.9999999999719 	2.852023522928506e-13 	101324.9999999925
-0.0262762762762767 	299.9999999999137 	4.459999422421643e-14 	101324.9999999924
-0.02377377377377422 	300.0000000000166 	6.002128062102763e-14 	101324.9999999924
-0.0212712712712717 	299.9999999999166 	9.712717859572871e-14 	101324.9999999921
-0.01876876876876921 	299.9999999999777 	1.21992273584854e-13 	101324.9999999922
-0.01626626626626671 	300.0000000000099 	7.979136570962273e-13 	101324.9999999923
-0.0137637637637642 	299.9999999999702 	6.6261620305865e-13 	101324.9999999921
-0.0112612612612617 	300.0000000000129 	7.91165925813922e-13 	101324.9999999919
-0.008758758758759198 	299.9999999999966 	2.684489919025214e-13 	101324.9999999918
-0.006256256256256697 	299.9999999999043 	8.995556641516024e-13 	101324.9999999916
-0.003753753753754195 	299.9999999999585 	5.79558031243002e-14 	101324.9999999915
-0.001251251251251693 	299.9999999999368 	6.082704394724621e-13 	101324.9999999915
0.00125125125125081 	299.9999999999621 	6.824449568490009e-14 	101324.9999999918
0.003753753753753312 	299.9999999999695 	6.434057300651133e-13 	101324.9999999921
0.006256256256255817 	299.9999999999029 	4.729885607042404e-14 	101324.9999999923
0.008758758758758317 	299.9999999999893 	1.304166724195189e-13 	101324.9999999924
0.01126126126126082 	300.0000000000086 	1.259436154777664e-13 	101324.9999999923
0.01376376376376332 	299.9999999999723 	2.103045883107839e-13 	101324.9999999923
0.01626626626626582 	300.0000000000085 	3.246997055348135e-13 	101324.9999999922
0.01876876876876833 	299.9999999999632 	8.337448449703775e-13 	101324.999999992
0.02127127127127083 	299.9999999999722 	3.736930137122132e-13 	101324.9999999922
0.02377377377377332 	299.9999999999947 	9.128311693844684e-14 	101324.9999999923
0.02627627627627583 	299.9999999999205 	2.207697464982296e-13 	101324.9999999926
0.02877877877877833 	300.0000000000051 	1.068721195978128e-12 	101324.9999999929
0.03128128128128083 	299.9999999999535 	9.554668094584477e-13 	101324.999999993
0.03378378378378333 	299.9999999999167 	1.437917649242666e-12 	101324.9999999929
0.03628628628628584 	299.9999999999785 	1.686867234218168e-12 	101324.9999999927
0.03878878878878834 	299.9999999999835 	2.137849329221675e-12 	101324.9999999923
0.04129129129129084 	299.9999999999781 	2.520217677952815e-12 	101324.9999999922
0.04379379379379333 	299.9999999999483 	2.585321928549186e-12 	101324.9999999922
0.04629629629629585 	299.9999999999044 	2.147569863691453e-12 	101324.999999992
0.04879879879879834 	299.9999999999605 	1.428379301698584e-12 	101324.9999999922
0.05130130130130085 	300.0000000000088 	4.339266466731392e-13 	101324.9999999924
0.05380380380380335 	300.0000000000155 	1.066585877217013e-13 	101324.9999999924
0.05630630630630584 	299.9999999999916 	2.338247553274723e-14 	101324.9999999924
0.05880880880880836 	299.9999999999342 	6.707122752996411e-13 	101324.9999999923
0.06131131131131085 	299.9999999999797 	1.421382442574684e-12 	101324.9999999921
0.06381381381381336 	299.9999999999699 	1.488419245711024e-12 	101324.9999999921
0.06631631631631586 	299.9999999999072 	1.914808943420642e-12 	101324.9999999924
0.06881881881881835 	299.9999999999562 	2.748620874458293e-12 	101324.9999999926
0.07132132132132088 	299.999999999987 	3.042098365543834e-12 	101324.9999999925
0.07382382382382337 	299.9999999999184 	3.604167874665466e-12 	101324.9999999926
0.07632632632632587 	299.9999999999773 	3.489708425906972e-12 	101324.9999999925
0.07882882882882837 	299.9999999999455 	3.229037416761317e-12 	101324.9999999925
0.08133133133133086 	299.9999999999901 	3.172574469024395e-12 	101324.9999999926
0.08383383383383337 	299.9999999999881 	2.627610886885588e-12 	101324.9999999926
0.08633633633633589 	299.9999999999207 	2.799328266277713e-12 	101324.9999999927
0.08883883883883838 	300.000000000009 	3.635741890960019e-12 	101324.9999999926
0.09134134134134086 	299.9999999999876 	2.98243534641979e-12 	101324.9999999926
0.09384384384384339 	299.9999999999129 	4.118540263282444e-12 	101324.9999999927
0.09634634634634588 	299.9999999999728 	3.516454181034683e-12 	101324.9999999927
0.09884884884884838 	299.9999999999766 	3.264655387254229e-12 	101324.9999999926
0.1013513513513509 	300.0000000000167 	2.819061867330148e-12 	101324.9999999925
0.1038538538538534 	299.9999999999596 	2.631666502476477e-12 	101324.9999999924
0.1063563563563559 	300.000000000015 	2.758864741219027e-12 	101324.9999999925
0.1088588588588584 	300.0000000000209 	2.507632949618143e-12 	101324.9999999925
0.1113613613613609 	299.9999999999332 	2.802866570187542e-12 	101324.9999999927
0.1138638638638634 	299.9999999999542 	2.800621359008289e-12 	101324.9999999928
0.1163663663663659 	299.9999999999515 	2.906050925876977e-12 	101324.9999999928
0.1188688688688684 	299.9999999999748 	2.534549282493205e-12 	101324.9999999929
0.1213713713713709 	299.9999999999947 	1.734582710460919e-12 	101324.9999999929
0.1238738738738734 	299.9999999999351 	1.795780989260301e-12 	101324.9999999929
0.1263763763763759 	299.9999999999853 	1.334276564842167e-12 	101324.9999999928
0.1288788788788784 	299.9999999999869 	6.584275433883862e-13 	101324.9999999925
0.1313813813813809 	299.9999999999865 	1.019815075454248e-12 	101324.9999999924
0.1338838838838834 	299.9999999999811 	1.335770820788992e-12 	101324.9999999925
0.1363863863863859 	300.0000000000239 	1.717925205656222e-12 	101324.9999999926
0.1388888888888884 	300.00000000004 	1.933086717276039e-12 	101324.9999999926
0.1413913913913909 	300.0000000000006 	1.946313550288301e-12 	101324.9999999928
0.1438938938938934 	299.9999999999937 	2.24870039863991e-12 	101324.9999999926
0.1463963963963959 	299.9999999999661 	1.210449219788612e-12 	101324.9999999924
0.1488988988988985 	299.9999999999267 	2.189481549257313e-12 	101324.9999999925
0.1514014014014009 	299.9999999999708 	1.286637103676153e-12 	101324.9999999922
0.1539039039039035 	299.9999999999661 	3.125131113551145e-12 	101324.9999999919
0.1564064064064059 	299.999999999945 	1.195573919514128e-12 	101324.9999999921
0.1589089089089084 	299.9999999999827 	4.169281764714929e-12 	101324.9999999922
0.1614114114114109 	299.9999999999782 	1.667585896494318e-12 	101324.9999999921
0.1639139139139134 	299.9999999999262 	3.475742030335738e-12 	101324.9999999923
0.166416416416416 	300.0000000000042 	2.659790832115454e-12 	101324.9999999925
0.1689189189189185 	300.0000000000204 	2.474185499356665e-12 	101324.9999999924
0.1714214214214209 	299.9999999999952 	3.067833197296278e-12 	101324.9999999924
0.1739239239239235 	299.9999999999893 	1.900111853010553e-12 	101324.9999999925
0.1764264264264259 	299.9999999999727 	3.982744837312106e-12 	101324.9999999925
0.1789289289289284 	300.000000000002 	1.484629509386417e-12 	101324.9999999926
0.181431431431431 	299.9999999999661 	4.140508752622452e-12 	101324.9999999925
0.1839339339339334 	299.9999999999702 	1.92287009620464e-12 	101324.9999999925
0.186436436436436 	299.9999999999367 	3.115336480578292e-12 	101324.9999999923
0.1889389389389385 	299.9999999999847 	2.359487666810209e-12 	101324.9999999923
0.191441441441441 	299.9999999999811 	1.352079104357152e-12 	101324.9999999923
0.1939439439439434 	299.9999999999332 	2.632384555818616e-12 	101324.9999999923
0.196446446446446 	299.9999999999567 	4.588552367242647e-13 	101324.9999999922
0.1989489489489485 	299.9999999999698 	2.5960353106824e-12 	101324.9999999921
0.2014514514514509 	299.9999999999827 	4.190950217259129e-13 	101324.9999999921
0.2039539539539535 	299.9999999999943 	2.221939802311971e-12 	101324.9999999923
0.2064564564564559 	299.9999999999657 	1.459770123660342e-12 	101324.9999999922
0.2089589589589585 	299.9999999999864 	2.097702067960561e-12 	101324.9999999921
0.211461461461461 	299.9999999999396 	2.316478300953203e-12 	101324.9999999919
0.2139639639639635 	299.9999999999804 	1.891692240235526e-12 	101324.9999999919
0.2164664664664659 	299.9999999999947 	3.34929822092911e-12 	101324.9999999919
0.2189689689689684 	299.9999999999948 	1.35110953677147e-12 	101324.999999992
0.221471471471471 	299.9999999999915 	4.196437846792573e-12 	101324.999999992
0.2239739739739735 	299.9999999999609 	2.445575953104445e-12 	101324.9999999917
0.226476476476476 	299.9999999999835 	4.433634866901008e-12 	101324.9999999917
0.2289789789789785 	299.9999999999951 	3.353349914047112e-12 	101324.9999999917
0.231481481481481 	299.9999999999917 	3.796456797126136e-12 	101324.9999999918
0.2339839839839835 	299.9999999999887 	3.972145910211785e-12 	101324.9999999919
0.236486486486486 	300.0000000000163 	2.81005679139552e-12 	101324.9999999921
0.2389889889889885 	299.999999999999 	3.542728842094922e-12 	101324.9999999919
0.241491491491491 	299.9999999999317 	1.316432967252042e-12 	101324.999999992
0.2439939939939935 	299.999999999981 	4.254271751376107e-12 	101324.9999999922
0.246496496496496 	299.9999999999915 	1.939950405781553e-12 	101324.9999999923
0.2489989989989985 	300.0000000000294 	3.334797607168473e-12 	101324.9999999922
0.251501501501501 	300.0000000000247 	2.133474024779254e-12 	101324.9999999921
0.2540040040040035 	299.9999999999922 	2.480111745700566e-12 	101324.9999999922
0.256506506506506 	300.0000000000207 	3.454573689493368e-12 	101324.9999999921
0.2590090090090086 	299.9999999999226 	2.276328391788879e-12 	101324.9999999922
0.261511511511511 	299.9999999999978 	4.723607011840616e-12 	101324.9999999923
0.2640140140140135 	299.9999999999922 	2.193707682124648e-12 	101324.9999999925
0.2665165165165161 	299.9999999999421 	4.054854228429808e-12 	101324.9999999924
0.2690190190190185 	300.0000000000024 	2.842810409230474e-12 	101324.9999999922
0.271521521521521 	300.0000000000026 	3.06285141247788e-12 	101324.9999999922
0.2740240240240235 	300.000000000012 	2.965444894189212e-12 	101324.999999992
0.276526526526526 	300.0000000000042 	1.870256208298354e-12 	101324.9999999916
0.2790290290290286 	299.9999999999488 	2.82957455000909e-12 	101324.9999999915
0.281531531531531 	299.9999999999409 	9.364036095234027e-13 	101324.9999999917
0.2840340340340335 	299.9999999999822 	2.986147253852048e-12 	101324.9999999918
0.2865365365365361 	299.9999999999636 	1.302709912021303e-12 	101324.9999999918
0.2890390390390385 	299.9999999999976 	2.23917121279204e-12 	101324.9999999919
0.291541541541541 	299.9999999999972 	1.68680828539832e-12 	101324.9999999921
0.2940440440440436 	299.999999999992 	1.419472931359914e-12 	101324.9999999921
0.296546546546546 	299.9999999999926 	2.433506987496164e-12 	101324.9999999919
0.2990490490490486 	299.9999999999474 	9.648049569576552e-13 	101324.9999999919
0.3015515515515511 	300.0000000000302 	4.457159066945315e-12 	101324.9999999918
0.3040540540540535 	299.9999999999939 	1.595036132976918e-12 	101324.999999992
0.3065565565565562 	299.9999999999989 	5.102358312102083e-12 	101324.9999999921
0.3090590590590585 	299.9999999999917 	1.36513751745986e-12 	101324.999999992
0.3115615615615611 	299.9999999999483 	4.011746178010397e-12 	101324.9999999919
0.3140640640640635 	300.0000000000022 	8.154947662726776e-13 	101324.9999999916
0.316566566566566 	299.9999999999947 	3.320617260203603e-12 	101324.9999999915
0.3190690690690687 	299.9999999999612 	1.42237568817662e-12 	101324.9999999915
0.3215715715715711 	300.0000000000108 	3.525064153094753e-12 	101324.9999999912
0.3240740740740735 	299.9999999999969 	1.59418170762845e-12 	101324.9999999912
0.326576576576576 	299.9999999999173 	3.110414419904377e-12 	101324.9999999913
0.3290790790790786 	300.0000000000026 	2.350129674881406e-12 	101324.9999999916
0.3315815815815811 	300.000000000024 	2.76706180073856e-12 	101324.9999999914
0.3340840840840836 	299.9999999999879 	1.686269932936345e-12 	101324.9999999916
0.3365865865865861 	300.0000000000425 	2.1384675993952e-12 	101324.9999999918
0.3390890890890886 	300.0000000000381 	6.504854561356033e-13 	101324.9999999919
0.3415915915915911 	300.0000000000017 	1.677701520106754e-12 	101324.999999992
0.3440940940940935 	299.9999999999601 	6.615785707270732e-13 	101324.9999999922
0.3465965965965962 	300.0000000000266 	1.547178163871563e-12 	101324.9999999922
0.3490990990990985 	300.0000000000215 	4.971517551058954e-13 	101324.999999992
0.3516016016016011 	299.9999999999871 	1.16927585938364e-12 	101324.999999992
0.3541041041041035 	300.0000000000048 	1.183777156939213e-12 	101324.999999992
0.3566066066066061 	299.9999999999634 	8.131446185546304e-13 	101324.9999999921
0.3591091091091085 	299.9999999999344 	2.11686227184734e-12 	101324.9999999921
0.3616116116116112 	299.9999999999511 	1.154667168977205e-12 	101324.9999999921
0.3641141141141137 	299.9999999999447 	3.466306075883345e-12 	101324.9999999921
0.3666166166166161 	299.9999999999372 	1.096551419565971e-12 	101324.9999999921
0.3691191191191185 	300.0000000000346 	4.580422216847646e-12 	101324.9999999922
0.371621621621621 	300.0000000000115 	7.58285289462827e-13 	101324.9999999919
0.3741241241241237 	300.0000000000417 	2.982631181248774e-12 	101324.9999999916
0.3766266266266261 	300.0000000000244 	9.98796538753516e-13 	101324.9999999915
0.3791291291291286 	299.9999999999869 	1.178987571293623e-12 	101324.9999999916
0.3816316316316311 	299.9999999999305 	1.643460083544123e-12 	101324.9999999916
0.3841341341341336 	300.0000000000038 	7.694058110671223e-13 	101324.9999999915
0.3866366366366362 	299.9999999999916 	1.101792076513407e-12 	101324.9999999915
0.3891391391391387 	299.9999999999615 	9.53497389588414e-13 	101324.9999999915
0.391641641641641 	299.9999999999932 	3.47574498414989e-13 	101324.9999999916
0.3941441441441436 	300.0000000000044 	1.25872876828494e-12 	101324.9999999917
0.3966466466466462 	299.9999999999982 	3.269243477306867e-13 	101324.9999999915
0.3991491491491486 	299.9999999999592 	1.201941280740351e-12 	101324.9999999913
0.4016516516516512 	299.9999999999336 	7.787936939347459e-13 	101324.999999991
0.4041541541541536 	299.9999999999625 	2.075816029684992e-12 	101324.9999999912
0.4066566566566561 	299.9999999999611 	5.908352014159748e-13 	101324.9999999912
0.4091591591591587 	299.9999999999957 	1.346218739764986e-12 	101324.9999999913
0.4116616616616612 	300.0000000000064 	6.956062853024227e-13 	101324.9999999913
0.4141641641641635 	300.0000000000344 	5.304919921717304e-13 	101324.9999999916
0.4166666666666662 	299.9999999999937 	1.353050726498133e-12 	101324.9999999917
0.4191691691691687 	299.9999999999505 	2.032072007031533e-12 	101324.9999999919
0.421671671671671 	300.0000000000072 	1.095599090633616e-12 	101324.9999999917
0.4241741741741737 	299.9999999999806 	3.129289073862124e-12 	101324.9999999914
0.4266766766766761 	299.9999999999587 	1.822125093596619e-12 	101324.9999999913
0.4291791791791785 	300.0000000000143 	3.420549448134723e-12 	101324.9999999914
0.4316816816816812 	300.0000000000063 	2.430574613966912e-12 	101324.9999999913
0.4341841841841836 	299.9999999999834 	3.200895150470196e-12 	101324.9999999913
0.4366866866866862 	299.9999999999332 	1.21858832589164e-12 	101324.9999999914
0.4391891891891885 	299.9999999999912 	1.757266176857603e-12 	101324.9999999916
0.4416916916916913 	299.9999999999859 	1.492287471722027e-12 	101324.9999999918
0.4441941941941936 	299.9999999999895 	8.908878846612004e-13 	101324.9999999919
0.4466966966966961 	299.9999999999325 	1.01034567866042e-12 	101324.999999992
0.4491991991991987 	299.9999999999839 	5.9971975755761e-13 	101324.999999992
0.4517017017017012 	299.9999999999822 	2.465273424516696e-13 	101324.9999999919
0.4542042042042035 	299.9999999999852 	3.712329115412901e-13 	101324.9999999917
0.4567067067067062 	299.9999999999972 	3.365248761628083e-13 	101324.9999999918
0.4592092092092087 	299.9999999999428 	5.348440738707561e-13 	101324.999999992
0.4617117117117112 	300.0000000000153 	3.722286937530568e-13 	101324.9999999918
0.4642142142142137 	299.9999999999703 	2.497461899632858e-13 	101324.9999999917
0.4667167167167162 	299.999999999993 	1.830042216154058e-13 	101324.9999999915
0.4692192192192187 	299.9999999999635 	3.955671632762808e-13 	101324.9999999917
0.4717217217217212 	300.0000000000084 	7.762834936495307e-13 	101324.9999999917
0.4742242242242236 	299.9999999999616 	6.664052084805207e-13 	101324.9999999918
0.4767267267267262 	299.9999999999773 	7.799095271720741e-13 	101324.9999999919
0.4792292292292287 	300.0000000000129 	5.547713270210964e-13 	101324.999999992
0.4817317317317312 	300.0000000000296 	6.521415974042696e-14 	101324.9999999922
0.4842342342342336 	299.9999999999875 	2.438735345737848e-13 	101324.9999999923
0.4867367367367362 	299.9999999999595 	6.469048037904907e-13 	101324.9999999926
0.4892392392392387 	300.0000000000213 	1.115843499385486e-12 	101324.9999999925
0.4917417417417412 	300.0000000000058 	1.008317053772593e-12 	101324.9999999925
0.4942442442442437 	299.9999999999231 	1.00683254658784e-12 	101324.9999999923
0.4967467467467462 	299.9999999999418 	1.592234255040858e-12 	101324.9999999921
0.4992492492492487 	299.9999999999357 	7.59016279894844e-13 	101324.9999999921
0.5017517517517511 	299.9999999999638 	1.791254951242445e-12 	101324.9999999919
0.5042542542542537 	299.9999999999731 	9.03665291208615e-13 	101324.9999999917
0.5067567567567562 	299.9999999999594 	1.114075446393513e-12 	101324.9999999914
0.5092592592592589 	299.9999999999764 	1.267104008292869e-12 	101324.9999999912
0.5117617617617611 	299.999999999965 	7.87300141678532e-13 	101324.9999999913
0.5142642642642637 	299.999999999987 	2.348132728748462e-12 	101324.9999999915
0.5167667667667663 	299.9999999999762 	1.571190549223907e-12 	101324.9999999917
0.5192692692692688 	299.9999999999395 	3.736409330691112e-12 	101324.9999999919
0.5217717717717714 	299.9999999999529 	2.843122511637473e-12 	101324.9999999921
0.5242742742742736 	299.9999999999499 	3.264553041780265e-12 	101324.999999992
0.5267767767767763 	299.9999999999653 	1.974696109575725e-12 	101324.9999999919
0.5292792792792789 	299.9999999999501 	2.29874154581405e-12 	101324.9999999918
0.5317817817817813 	299.9999999999274 	1.563967824101658e-12 	101324.9999999916
0.5342842842842837 	300.0000000000128 	8.996037550239832e-13 	101324.9999999917
0.5367867867867864 	300.0000000000004 	1.156228247015638e-12 	101324.9999999917
0.5392892892892888 	299.9999999999654 	5.169139613438969e-13 	101324.9999999917
0.5417917917917912 	300.0000000000035 	9.317798292524148e-13 	101324.999999992
0.5442942942942938 	299.9999999999865 	3.782690724955377e-13 	101324.9999999923
0.5467967967967964 	299.9999999999628 	6.032813366654226e-13 	101324.9999999925
0.5492992992992988 	299.9999999999534 	4.09166467993792e-13 	101324.9999999927
0.5518018018018012 	299.9999999999482 	1.262392462230199e-12 	101324.9999999928
0.5543043043043039 	300.0000000000164 	6.903511360342133e-13 	101324.9999999928
0.5568068068068063 	299.9999999999925 	1.208872757603881e-12 	101324.9999999927
0.5593093093093087 	299.9999999999253 	9.455107716639829e-13 	101324.9999999926
0.5618118118118114 	299.9999999999728 	1.22542875094592e-12 	101324.9999999927
0.5643143143143137 	299.999999999954 	8.97568741776316e-13 	101324.9999999926
0.5668168168168163 	299.9999999999911 	5.663174726265501e-13 	101324.9999999928
0.5693193193193188 	300.0000000000232 	5.631669256538906e-13 	101324.9999999927
0.5718218218218213 	300.0000000000194 	7.47049209028965e-13 	101324.9999999928
0.5743243243243239 	300.0000000000038 	1.52426922629475e-12 	101324.9999999926
0.5768268268268262 	300.0000000000058 	1.85046182794619e-12 	101324.9999999923
0.5793293293293288 	299.9999999999605 	2.469349285065963e-12 	101324.9999999922
0.5818318318318314 	299.9999999999371 	2.564750236108328e-12 	101324.9999999922
0.5843343343343338 	299.9999999999857 	3.021111546243233e-12 	101324.9999999922
0.5868368368368363 	299.9999999999808 	2.545399123690687e-12 	101324.9999999923
0.5893393393393387 	299.9999999999578 	1.761476695517237e-12 	101324.9999999925
0.5918418418418413 	299.9999999999521 	2.07299619466337e-12 	101324.9999999927
0.5943443443443439 	300.0000000000092 	1.095849158676668e-12 	101324.9999999928
0.5968468468468463 	300.0000000000122 	1.877547396537576e-12 	101324.9999999927
0.5993493493493487 	300.0000000000327 	1.316748656190189e-12 	101324.9999999928
0.6018518518518514 	299.9999999999849 	2.234659272785417e-12 	101324.9999999928
0.6043543543543537 	299.9999999999929 	1.743123619436275e-12 	101324.9999999926
0.6068568568568564 	299.9999999999832 	3.002483291360566e-12 	101324.9999999926
0.6093593593593587 	299.9999999999434 	2.445970562171215e-12 	101324.9999999926
0.6118618618618614 	299.9999999999412 	2.479322580252285e-12 	101324.9999999928
0.6143643643643638 	300.0000000000113 	1.307194404004689e-12 	101324.9999999927
0.6168668668668662 	299.9999999999872 	2.315257699917095e-12 	101324.9999999927
0.6193693693693688 	299.9999999999646 	1.0215254854577e-12 	101324.9999999928
0.6218718718718714 	299.9999999999727 	2.112925048736877e-12 	101324.9999999928
0.6243743743743737 	299.999999999949 	9.90724246958895e-13 	101324.9999999929
0.6268768768768762 	299.9999999999382 	1.671134271217407e-12 	101324.999999993
0.629379379379379 	299.9999999999586 	8.185088354836631e-13 	101324.999999993
0.6318818818818812 	299.9999999999815 	1.514692423629861e-12 	101324.9999999927
0.6343843843843838 	300.0000000000177 	1.620777717627817e-12 	101324.9999999925
0.6368868868868864 	299.9999999999889 	1.490238342867279e-12 	101324.9999999925
0.6393893893893888 	299.9999999999391 	3.043519008364485e-12 	101324.9999999926
0.6418918918918912 	300.0000000000076 	2.320452695156347e-12 	101324.9999999926
0.6443943943943939 	299.9999999999975 	4.185039528111909e-12 	101324.9999999927
0.6468968968968963 	299.9999999999887 	2.747600597888729e-12 	101324.9999999927
0.6493993993993988 	299.9999999999797 	3.792290016355347e-12 	101324.9999999926
0.6519019019019012 	299.9999999999753 	1.75168426928479e-12 	101324.9999999927
0.6544044044044038 	299.999999999923 	3.795002136222498e-12 	101324.9999999927
0.6569069069069065 	299.9999999999653 	1.096224762589485e-12 	101324.9999999928
0.6594094094094087 	299.9999999999688 	3.107953619203495e-12 	101324.9999999929
0.6619119119119113 	299.9999999999608 	1.226789241281002e-12 	101324.999999993
0.664414414414414 	299.9999999999977 	2.494353632727866e-12 	101324.9999999929
0.6669169169169162 	300.0000000000168 	1.111712464983079e-12 	101324.9999999928
0.6694194194194188 	299.9999999999889 	1.877983084262317e-12 	101324.9999999926
0.6719219219219214 	299.9999999999373 	4.458398520331956e-13 	101324.9999999923
0.674424424424424 	299.9999999999785 	1.187675311180336e-12 	101324.9999999922
0.6769269269269262 	299.9999999999357 	5.958660546261814e-13 	101324.9999999922
0.679429429429429 	300.0000000000055 	1.136700258515792e-12 	101324.9999999922
0.6819319319319311 	299.9999999999816 	9.586438793088206e-13 	101324.9999999924
0.6844344344344341 	299.9999999999918 	1.780649837895019e-12 	101324.9999999926
0.686936936936936 	299.999999999989 	9.483474151935002e-13 	101324.9999999925
0.6894394394394392 	299.9999999999868 	1.390151265694588e-12 	101324.9999999925
0.6919419419419413 	299.9999999999857 	8.717438367632041e-13 	101324.9999999926
0.694444444444444 	299.9999999999515 	6.805981334121335e-13 	101324.9999999927
0.6969469469469463 	299.9999999999445 	9.987833888415594e-13 	101324.999999993
0.6994494494494489 	299.9999999999374 	1.078804258339671e-12 	101324.9999999932
0.7019519519519515 	299.9999999999881 	1.159527804554478e-12 	101324.9999999934
0.7044544544544538 	299.9999999999593 	1.912155800673887e-12 	101324.9999999936
0.7069569569569564 	299.9999999999969 	1.428822449089519e-12 	101324.9999999937
0.7094594594594589 	299.9999999999726 	2.096128875355923e-12 	101324.9999999936
0.7119619619619615 	299.9999999999299 	9.15061592637282e-13 	101324.9999999935
0.7144644644644638 	299.9999999999582 	1.915402241176004e-12 	101324.9999999935
0.7169669669669665 	299.9999999999355 	1.216148490717663e-12 	101324.9999999937
0.7194694694694688 	299.9999999999922 	1.512131725516706e-12 	101324.9999999938
0.7219719719719715 	299.9999999999908 	5.422666225205928e-13 	101324.9999999937
0.7244744744744737 	300.0000000000007 	5.292482417443381e-13 	101324.9999999937
0.7269769769769764 	299.9999999999941 	1.261699240975554e-12 	101324.9999999938
0.7294794794794791 	299.9999999999875 	1.448505496879364e-12 	101324.9999999939
0.7319819819819813 	299.9999999999828 	1.133205044894872e-12 	101324.999999994
0.7344844844844839 	299.9999999999382 	1.066299012762285e-12 	101324.9999999941
0.7369869869869864 	299.9999999999617 	7.451672716388113e-13 	101324.9999999941
0.739489489489489 	299.9999999999523 	6.752296575291448e-13 	101324.9999999939
0.7419919919919914 	299.9999999999426 	9.350396549966827e-13 	101324.9999999938
0.7444944944944939 	299.999999999978 	1.991223502338627e-12 	101324.9999999937
0.7469969969969963 	299.9999999999753 	1.510913088246341e-12 	101324.9999999936
0.7494994994994989 	299.9999999999546 	2.639624341015174e-12 	101324.9999999937
0.7520020020020015 	299.9999999999797 	2.127176252336444e-12 	101324.9999999939
0.7545045045045039 	299.9999999999781 	2.163522144171668e-12 	101324.999999994
0.7570070070070062 	299.9999999999559 	1.123879425686715e-12 	101324.999999994
0.7595095095095092 	299.9999999999433 	1.432546271517057e-12 	101324.9999999939
0.7620120120120112 	300.0000000000034 	6.955441914815835e-13 	101324.999999994
0.7645145145145138 	299.9999999999891 	1.22592694624036e-12 	101324.9999999944
0.7670170170170165 	299.999999999947 	2.021491725198367e-12 	101324.9999999947
0.7695195195195191 	299.9999999999448 	1.519969719876906e-12 	101324.9999999948
0.7720220220220213 	299.9999999999492 	2.968743556450798e-12 	101324.9999999947
0.7745245245245239 	299.9999999999501 	1.308231541974316e-12 	101324.9999999947
0.7770270270270263 	299.9999999999781 	2.568051731535327e-12 	101324.9999999946
0.779529529529529 	299.9999999999854 	1.26890063199974e-12 	101324.9999999943
0.7820320320320313 	299.9999999999771 	2.220452526899654e-12 	101324.9999999942
0.784534534534534 	300.0000000000014 	2.404018280263954e-12 	101324.9999999942
0.7870370370370364 	299.9999999999993 	2.532607966190802e-12 	101324.9999999943
0.7895395395395389 	299.9999999999921 	3.559663444454561e-12 	101324.9999999944
0.7920420420420413 	299.9999999999813 	2.862741290768805e-12 	101324.9999999942
0.794544544544544 	299.9999999999793 	4.361589194437553e-12 	101324.9999999942
0.7970470470470463 	300.0000000000002 	2.399129634391356e-12 	101324.9999999942
0.799549549549549 	299.9999999999878 	4.528761811756483e-12 	101324.9999999942
0.8020520520520515 	299.9999999999957 	2.173690955595668e-12 	101324.9999999943
0.8045545545545539 	299.999999999962 	3.64816880304893e-12 	101324.9999999942
0.8070570570570563 	299.9999999999862 	2.74409496185241e-12 	101324.9999999943
0.8095595595595589 	299.9999999999657 	3.556815944364048e-12 	101324.9999999943
0.8120620620620614 	299.9999999999496 	3.483870389981906e-12 	101324.9999999943
0.8145645645645638 	299.9999999999975 	2.985945452931674e-12 	101324.9999999943
0.8170670670670666 	299.9999999999945 	3.22855991566384e-12 	101324.9999999943
0.8195695695695689 	299.9999999999813 	2.282058960887178e-12 	101324.9999999944
0.8220720720720714 	299.9999999999575 	4.664937635940756e-12 	101324.9999999945
0.8245745745745739 	299.999999999999 	3.428804493684188e-12 	101324.9999999946
0.8270770770770765 	299.9999999999806 	5.159634339074168e-12 	101324.9999999946
0.8295795795795788 	299.9999999999615 	4.330416493820899e-12 	101324.9999999946
0.8320820820820815 	300.0000000000169 	5.173246795923245e-12 	101324.9999999948
0.834584584584584 	300.0000000000086 	4.639723103105123e-12 	101324.9999999948
0.8370870870870865 	299.9999999999764 	4.389737877820368e-12 	101324.9999999947
0.8395895895895891 	299.9999999999444 	5.089793576693272e-12 	101324.9999999947
0.8420920920920915 	299.9999999999569 	4.885987499003111e-12 	101324.9999999947
0.844594594594594 	299.9999999999516 	5.576593949919301e-12 	101324.9999999949
0.8470970970970964 	299.9999999999576 	6.212810836823547e-12 	101324.999999995
0.8495995995995991 	299.9999999999887 	6.504139305919348e-12 	101324.9999999949
0.8521021021021015 	299.9999999999847 	6.780461585180549e-12 	101324.9999999949
0.8546046046046039 	299.9999999999835 	6.26185000097899e-12 	101324.9999999948
0.8571071071071066 	299.9999999999976 	7.082417843306808e-12 	101324.999999995
0.8596096096096089 	299.9999999999707 	4.950846951504479e-12 	101324.9999999952
0.8621121121121116 	299.9999999999445 	6.728205099482347e-12 	101324.9999999953
0.8646146146146139 	299.9999999999924 	4.679558901665577e-12 	101324.9999999954
0.8671171171171166 	299.9999999999801 	6.14949416685956e-12 	101324.9999999954
0.8696196196196189 	299.9999999999612 	5.697965306792478e-12 	101324.9999999954
0.8721221221221216 	299.9999999999808 	6.623760711768799e-12 	101324.9999999953
0.874624624624624 	300.0000000000068 	6.359711159909007e-12 	101324.9999999952
0.8771271271271264 	300.0000000000025 	5.618540986689572e-12 	101324.9999999951
0.879629629629629 	300.0000000000014 	5.39005863340913e-12 	101324.9999999951
0.8821321321321317 	299.9999999999856 	3.517830126763864e-12 	101324.9999999952
0.8846346346346339 	299.9999999999452 	5.498445459168634e-12 	101324.9999999952
0.8871371371371364 	299.9999999999677 	3.62918585513013e-12 	101324.9999999953
0.8896396396396391 	299.9999999999708 	5.410806120733023e-12 	101324.9999999954
0.8921421421421414 	299.9999999999765 	4.782729269525082e-12 	101324.9999999954
0.8946446446446441 	299.9999999999915 	5.753734444127879e-12 	101324.9999999955
0.8971471471471464 	300.0000000000027 	5.409718446613453e-12 	101324.9999999956
0.8996496496496489 	299.9999999999857 	5.484224765277739e-12 	101324.9999999956
0.9021521521521517 	299.9999999999735 	6.337961781926154e-12 	101324.9999999955
0.9046546546546541 	299.999999999994 	5.838570542991983e-12 	101324.9999999956
0.9071571571571564 	299.9999999999601 	6.655020125540164e-12 	101324.9999999955
0.9096596596596589 	299.9999999999626 	6.699990425619309e-12 	101324.9999999956
0.9121621621621616 	300.0000000000081 	6.940299972295364e-12 	101324.9999999957
0.9146646646646639 	299.9999999999817 	7.320813356942042e-12 	101324.9999999956
0.9171671671671666 	299.9999999999565 	7.896300991887969e-12 	101324.9999999957
0.9196696696696689 	299.9999999999988 	8.487309893532411e-12 	101324.9999999958
0.9221721721721714 	299.9999999999999 	6.937766656263713e-12 	101324.9999999958
0.9246746746746741 	299.999999999954 	9.178888598299602e-12 	101324.9999999958
0.9271771771771765 	299.9999999999569 	7.736449375516251e-12 	101324.9999999958
0.9296796796796791 	299.9999999999932 	1.000360763049699e-11 	101324.9999999958
0.9321821821821816 	299.9999999999795 	9.346078268120173e-12 	101324.9999999956
0.9346846846846838 	299.9999999999632 	1.048861691767484e-11 	101324.9999999956
0.9371871871871866 	300.0000000000131 	9.978217435500029e-12 	101324.9999999955
0.9396896896896891 	300.0000000000143 	1.007033912089124e-11 	101324.9999999953
0.9421921921921914 	300.0000000000084 	1.03855981507086e-11 	101324.9999999952
0.9446946946946939 	299.9999999999741 	9.132311006089795e-12 	101324.9999999951
0.9471971971971965 	299.9999999999414 	1.040984068209816e-11 	101324.9999999953
0.9496996996996991 	299.9999999999649 	8.232788656555003e-12 	101324.9999999956
0.9522022022022016 	299.9999999999731 	9.361746501871865e-12 	101324.9999999957
0.9547047047047038 	299.9999999999754 	8.491982833556597e-12 	101324.9999999959
0.9572072072072064 	299.9999999999704 	9.078943825935024e-12 	101324.999999996
0.9597097097097093 	299.9999999999717 	8.864043902061974e-12 	101324.999999996
0.9622122122122114 	299.9999999999647 	8.869717611497387e-12 	101324.9999999959
0.964714714714714 	299.9999999999658 	1.024026715543306e-11 	101324.9999999959
0.9672172172172167 	299.9999999999704 	9.55417444383828e-12 	101324.999999996
0.969719719719719 	299.9999999999878 	1.012737394962728e-11 	101324.9999999962
0.9722222222222214 	299.9999999999808 	9.665934689123323e-12 	101324.9999999963
0.9747247247247239 	299.999999999977 	9.987895846814627e-12 	101324.9999999963
0.9772272272272267 	300.0000000000014 	9.829497500771731e-12 	101324.9999999965
0.9797297297297292 	299.9999999999928 	9.702312307086088e-12 	101324.9999999963
0.9822322322322313 	299.9999999999978 	1.036039272551608e-11 	101324.9999999962
0.9847347347347344 	299.9999999999947 	9.277324637642335e-12 	101324.9999999961
0.9872372372372363 	299.9999999999618 	1.123569646920132e-11 	101324.9999999961
0.9897397397397389 	299.9999999999777 	9.057479349003268e-12 	101324.9999999962
0.9922422422422417 	299.99999999996 	1.050942329767195e-11 	101324.9999999962
0.9947447447447441 	299.999999999961 	9.403495814062371e-12 	101324.9999999962
0.9972472472472468 	299.9999999999752 	1.023621661760683e-11 	101324.9999999962
0.999749749749749 	299.9999999999717 	9.979785679003648e-12 	101324.999999996
1.002252252252252 	299.9999999999797 	1.063075936751831e-11 	101324.999999996
1.004754754754754 	299.9999999999925 	1.080292800673357e-11 	101324.999999996
1.007257257257256 	299.9999999999758 	1.011624573223892e-11 	101324.9999999961
1.009759759759759 	299.9999999999662 	1.228369314223252e-11 	101324.9999999961
1.012262262262261 	299.9999999999688 	1.071761380378354e-11 	101324.999999996
1.014764764764764 	299.9999999999488 	1.209397634568581e-11 	101324.9999999961
1.017267267267267 	299.9999999999437 	1.141450571914915e-11 	101324.999999996
1.019769769769769 	299.9999999999786 	1.211331330411989e-11 	101324.9999999958
1.022272272272272 	299.9999999999847 	1.186453697149223e-11 	101324.9999999956
1.024774774774774 	299.9999999999814 	1.203310865873707e-11 	101324.9999999959
1.027277277277277 	299.9999999999819 	1.283249903530426e-11 	101324.9999999961
1.029779779779779 	300.0000000000079 	1.197312276835501e-11 	101324.9999999961
1.032282282282282 	300.0000000000072 	1.276587016838041e-11 	101324.9999999963
1.034784784784784 	299.9999999999972 	1.217314109114603e-11 	101324.9999999964
1.037287287287286 	299.9999999999736 	1.252347425813608e-11 	101324.9999999964
1.039789789789789 	299.9999999999781 	1.263064189537224e-11 	101324.9999999964
1.042292292292291 	300.0000000000045 	1.287420522323856e-11 	101324.9999999964
1.044794794794794 	300.0000000000192 	1.245503448061238e-11 	101324.9999999964
1.047297297297296 	300.00000000003 	1.078988686017109e-11 	101324.9999999964
1.049799799799799 	299.9999999999918 	1.18750777622606e-11 	101324.9999999963
1.052302302302302 	299.9999999999641 	1.004983636195269e-11 	101324.9999999964
1.054804804804804 	299.9999999999465 	1.141270797337219e-11 	101324.9999999964
1.057307307307306 	299.9999999999374 	1.067787390715751e-11 	101324.9999999965
1.059809809809809 	299.999999999969 	1.166317484055301e-11 	101324.9999999966
1.062312312312312 	299.9999999999645 	1.132282450933305e-11 	101324.9999999967
1.064814814814814 	299.9999999999603 	1.207383635954386e-11 	101324.9999999967
1.067317317317317 	299.9999999999417 	1.190655137072899e-11 	101324.9999999968
1.069819819819819 	299.9999999999413 	1.163493535293371e-11 	101324.9999999967
1.072322322322321 	299.9999999999945 	1.341556326209806e-11 	101324.9999999965
1.074824824824824 	300.0000000000142 	1.218290259521498e-11 	101324.9999999964
1.077327327327327 	300.0000000000272 	1.397941552703991e-11 	101324.9999999963
1.079829829829829 	300.0000000000295 	1.329830187126715e-11 	101324.9999999961
1.082332332332332 	300.0000000000042 	1.42959282486608e-11 	101324.9999999961
1.084834834834834 	299.9999999999893 	1.375374455308755e-11 	101324.9999999961
1.087337337337337 	299.9999999999603 	1.310383145323712e-11 	101324.9999999962
1.089839839839839 	299.9999999999495 	1.380613311230666e-11 	101324.9999999964
1.092342342342342 	299.9999999999772 	1.206626624966325e-11 	101324.9999999966
1.094844844844844 	299.9999999999794 	1.248227496434065e-11 	101324.9999999967
1.097347347347347 	299.9999999999573 	1.086387808341797e-11 	101324.9999999967
1.099849849849849 	299.9999999999492 	1.321670327351126e-11 	101324.9999999969
1.102352352352352 	299.9999999999683 	1.143861219911245e-11 	101324.9999999971
1.104854854854854 	299.9999999999803 	1.28850585015272e-11 	101324.9999999971
1.107357357357357 	299.9999999999668 	1.094825714291135e-11 	101324.9999999971
1.109859859859859 	299.9999999999619 	1.189039446140701e-11 	101324.9999999971
1.112362362362362 	300.0000000000123 	1.088915025483786e-11 	101324.9999999971
1.114864864864865 	300.0000000000098 	1.091023024851739e-11 	101324.999999997
1.117367367367367 	299.9999999999745 	1.172394172757063e-11 	101324.9999999969
1.119869869869869 	299.9999999999451 	1.037435915701442e-11 	101324.9999999969
1.122372372372372 	299.9999999999648 	1.150233346089768e-11 	101324.9999999969
1.124874874874874 	299.9999999999623 	1.067871286833257e-11 	101324.9999999971
1.127377377377377 	299.9999999999688 	1.212690451216154e-11 	101324.9999999971
1.129879879879879 	300.0000000000115 	1.172439555858775e-11 	101324.9999999971
1.132382382382382 	300.0000000000281 	1.199828594253136e-11 	101324.9999999971
1.134884884884884 	300.0000000000058 	1.14027506591203e-11 	101324.9999999971
1.137387387387387 	300.0000000000091 	1.131528113817378e-11 	101324.9999999971
1.139889889889889 	299.9999999999716 	1.218893901563099e-11 	101324.9999999971
1.142392392392392 	299.9999999999662 	1.121252033075869e-11 	101324.9999999971
1.144894894894894 	300.000000000012 	1.263102855926242e-11 	101324.9999999973
1.147397397397397 	299.9999999999973 	1.146788327156618e-11 	101324.9999999974
1.149899899899899 	299.9999999999548 	1.224284115371459e-11 	101324.9999999974
1.152402402402402 	299.9999999999462 	1.155922346847687e-11 	101324.9999999976
1.154904904904904 	299.9999999999731 	1.239099897550875e-11 	101324.9999999977
1.157407407407407 	299.999999999973 	1.221698019691977e-11 	101324.9999999977
1.159909909909909 	299.9999999999503 	1.242941846447839e-11 	101324.9999999977
1.162412412412412 	299.9999999999468 	1.358315796588838e-11 	101324.9999999978
1.164914914914914 	299.9999999999685 	1.208880364739598e-11 	101324.9999999978
1.167417417417417 	299.9999999999712 	1.329522554063075e-11 	101324.9999999976
1.169919919919919 	300.0000000000088 	1.247787608667696e-11 	101324.9999999976
1.172422422422422 	300.0000000000321 	1.339032641010799e-11 	101324.9999999978
1.174924924924925 	299.9999999999901 	1.252331050556982e-11 	101324.9999999979
1.177427427427427 	299.9999999999638 	1.32380942515433e-11 	101324.9999999981
1.179929929929929 	300.0000000000075 	1.418631089975474e-11 	101324.9999999982
1.182432432432432 	300.0000000000317 	1.296365362402696e-11 	101324.9999999983
1.184934934934934 	300.0000000000012 	1.415881210738487e-11 	101324.9999999981
1.187437437437437 	299.9999999999799 	1.337225652965002e-11 	101324.9999999977
1.189939939939939 	299.9999999999756 	1.442942198357279e-11 	101324.9999999976
1.192442442442442 	299.9999999999503 	1.38089993341217e-11 	101324.9999999976
1.194944944944944 	299.9999999999471 	1.481305082502717e-11 	101324.9999999976
1.197447447447447 	299.9999999999898 	1.374449966166992e-11 	101324.9999999978
1.199949949949949 	300.0000000000081 	1.334349150673238e-11 	101324.9999999978
1.202452452452452 	299.9999999999669 	1.408159332799246e-11 	101324.999999998
1.204954954954955 	299.999999999961 	1.309336990788493e-11 	101324.9999999981
1.207457457457457 	299.9999999999845 	1.444573196519347e-11 	101324.9999999981
1.20995995995996 	299.9999999999825 	1.370446636734478e-11 	101324.999999998
1.212462462462462 	299.9999999999902 	1.461408685583611e-11 	101324.9999999978
1.214964964964964 	299.9999999999931 	1.396554641676709e-11 	101324.9999999978
1.217467467467467 	299.9999999999881 	1.475903557560055e-11 	101324.9999999979
1.219969969969969 	299.9999999999754 	1.347954539984736e-11 	101324.9999999979
1.222472472472472 	300.0000000000133 	1.355405099517405e-11 	101324.9999999981
1.224974974974975 	300.0000000000343 	1.395067813209773e-11 	101324.9999999981
1.227477477477477 	299.9999999999971 	1.24289019165367e-11 	101324.999999998
1.229979979979979 	299.9999999999843 	1.347189149176021e-11 	101324.999999998
1.232482482482482 	299.9999999999638 	1.243040637209529e-11 	101324.999999998
1.234984984984984 	299.9999999999643 	1.439384628631122e-11 	101324.999999998
1.237487487487487 	299.9999999999831 	1.390885073395047e-11 	101324.999999998
1.239989989989989 	299.9999999999841 	1.429493029581883e-11 	101324.9999999981
1.242492492492492 	300.0000000000061 	1.424805225162122e-11 	101324.9999999981
1.244994994994994 	299.9999999999837 	1.277681537253991e-11 	101324.9999999983
1.247497497497497 	299.9999999999806 	1.380050473597581e-11 	101324.9999999985
1.249999999999999 	300 	1.314420306583285e-11 	101324.9999999986
