-1.25 	306.2666616782128 	0.0004774556662272095 	101325.0050265482
-1.247497497497497 	300.186165142157 	0.0005515801011389911 	101324.9885992578
-1.244994994994995 	300.0005244538242 	0.0007168431334739498 	101325.0036762625
-1.242492492492492 	299.9999929778869 	0.0008675167843397787 	101324.9906558932
-1.23998998998999 	300.000002674773 	0.0009917802424961489 	101325.0031507698
-1.237487487487487 	299.9999928166939 	0.001093723884984508 	101324.9915193669
-1.234984984984985 	300.0000005508547 	0.001174981600738439 	101325.0006425556
-1.232482482482482 	299.9999927898666 	0.001236669585623408 	101324.9914841784
-1.22997997997998 	300.0000000129389 	0.001281356313248433 	101325.000007004
-1.227477477477477 	299.9999929991819 	0.001308038936111306 	101324.9917326788
-1.224974974974975 	299.9999988514577 	0.001326223489405235 	101324.998638965
-1.222472472472472 	299.9999945027201 	0.001329739410573444 	101324.9935110188
-1.21996996996997 	299.9999992163308 	0.001319207033884162 	101324.9990718208
-1.217467467467467 	299.99999488317 	0.001301317865263576 	101324.9939556827
-1.214964964964965 	299.999998678906 	0.001277707634984462 	101324.9984349692
-1.212462462462462 	299.9999948150907 	0.001245349407586227 	101324.993873171
-1.20995995995996 	299.9999981326494 	0.001209478244490769 	101324.9977918002
-1.207457457457457 	299.9999953191864 	0.001168672880659496 	101324.994468728
-1.204954954954955 	299.9999986141012 	0.001123467839059486 	101324.9983623868
-1.202452452452452 	299.9999960669861 	0.001075760022640411 	101324.9953503024
-1.19994994994995 	299.9999981932678 	0.001028149594268181 	101324.9978652939
-1.197447447447447 	299.9999951982314 	0.0009749332192066033 	101324.9943236353
-1.194944944944945 	299.9999969418604 	0.0009259536981651027 	101324.9963868585
-1.192442442442442 	299.9999948671427 	0.0008735510311193109 	101324.9939313177
-1.18993993993994 	299.9999973205826 	0.0008221277721272848 	101324.9968353133
-1.187437437437437 	299.9999960231806 	0.0007723585948122113 	101324.9952974662
-1.184934934934935 	299.9999981536573 	0.0007228023738206294 	101324.9978200521
-1.182432432432432 	299.9999964317716 	0.0006737128173888393 	101324.9957797032
-1.17992992992993 	299.9999978030962 	0.0006286688652075518 	101324.9974055873
-1.177427427427427 	299.9999960206389 	0.0005819939565036205 	101324.9952931708
-1.174924924924925 	299.9999974188603 	0.0005401366863096557 	101324.9969510538
-1.172422422422422 	299.9999960916896 	0.0004979854480791024 	101324.9953762949
-1.16991991991992 	299.9999975299377 	0.0004596532589093184 	101324.9970820302
-1.167417417417417 	299.999996271357 	0.0004212662692133445 	101324.9955924036
-1.164914914914915 	299.9999973845785 	0.000387745352900083 	101324.9969102703
-1.162412412412412 	299.9999961138007 	0.0003530098852573003 	101324.9954028749
-1.15990990990991 	299.999997132849 	0.0003235572678907649 	101324.9966121026
-1.157407407407407 	299.9999962287081 	0.0002936088078120772 	101324.9955395051
-1.154904904904904 	299.9999973888014 	0.0002674516367972437 	101324.9969142303
-1.152402402402403 	299.9999968471571 	0.0002422230048987906 	101324.9962709743
-1.1498998998999 	299.9999978155419 	0.0002200290498805128 	101324.9974188605
-1.147397397397397 	299.9999972721388 	0.0001983769074303563 	101324.9967739418
-1.144894894894895 	299.9999978771824 	0.0001806134581739154 	101324.9974918771
-1.142392392392392 	299.9999971483366 	0.0001615133935244898 	101324.9966283984
-1.13988988988989 	299.9999973777102 	0.0001471508981896281 	101324.9969010496
-1.137387387387387 	299.9999969948921 	0.0001303542047204313 	101324.9964466847
-1.134884884884885 	299.9999971523498 	0.0001177706272328231 	101324.9966337058
-1.132382382382382 	299.9999970320311 	0.0001028942888930732 	101324.9964903678
-1.12987987987988 	299.9999972186762 	9.226624733405328e-05 	101324.9967121544
-1.127377377377377 	299.9999971141702 	7.990884344691873e-05 	101324.9965885697
-1.124874874874875 	299.9999973713799 	7.123357818204147e-05 	101324.996893205
-1.122372372372372 	299.9999973447422 	6.087725531915882e-05 	101324.996860826
-1.11986986986987 	299.9999975708859 	5.380971185348166e-05 	101324.9971273808
-1.117367367367367 	299.9999975783552 	4.520640338940344e-05 	101324.997136131
-1.114864864864865 	299.9999977567937 	3.96219034225977e-05 	101324.9973473217
-1.112362362362362 	299.9999977989348 	3.2338855792573e-05 	101324.9973981156
-1.10985985985986 	299.9999978699656 	2.812403509148502e-05 	101324.9974829445
-1.107357357357357 	299.9999979363453 	2.21108808309264e-05 	101324.997561198
-1.104854854854855 	299.9999979803302 	1.906495014365052e-05 	101324.9976122267
-1.102352352352353 	299.9999980578631 	1.422944804200314e-05 	101324.9977030602
-1.09984984984985 	299.9999980771187 	1.233968075230134e-05 	101324.9977253118
-1.097347347347347 	299.9999981578582 	8.576559395295689e-06 	101324.997820859
-1.094844844844845 	299.9999982008333 	7.556389806247868e-06 	101324.9978715384
-1.092342342342342 	299.9999982854691 	5.111543439113263e-06 	101324.9979722743
-1.08983983983984 	299.9999983461336 	4.640241473711169e-06 	101324.998045271
-1.087337337337337 	299.9999984410587 	4.656084093581021e-06 	101324.9981577249
-1.084834834834835 	299.9999985177415 	4.164637612662609e-06 	101324.9982479068
-1.082332332332332 	299.9999986046341 	4.155199548829176e-06 	101324.9983502272
-1.07982982982983 	299.9999986706662 	3.769104269787416e-06 	101324.9984275433
-1.077327327327327 	299.9999987368236 	3.732089105127645e-06 	101324.9985052351
-1.074824824824825 	299.9999987984036 	3.434588399012916e-06 	101324.9985779604
-1.072322322322323 	299.9999988682592 	3.313616109338282e-06 	101324.9986609065
-1.06981981981982 	299.9999989452801 	3.034385341760402e-06 	101324.998752347
-1.067317317317317 	299.9999990302596 	2.816255069430754e-06 	101324.9988529861
-1.064814814814815 	299.9999991228171 	2.53816986093261e-06 	101324.9989623574
-1.062312312312312 	299.9999992235222 	2.251581821462243e-06 	101324.9990813613
-1.05980980980981 	299.9999993245435 	1.963555652250083e-06 	101324.9992008859
-1.057307307307307 	299.9999994131798 	1.708417598449771e-06 	101324.9993057992
-1.054804804804805 	299.9999994857902 	1.493661082189596e-06 	101324.9993915381
-1.052302302302302 	299.9999995540082 	1.291005046339858e-06 	101324.9994719726
-1.0497997997998 	299.9999996314234 	1.066185272753774e-06 	101324.9995634422
-1.047297297297297 	299.9999997196774 	8.120145434031196e-07 	101324.9996679368
-1.044794794794795 	299.9999998138784 	5.392212547163078e-07 	101324.9997795612
-1.042292292292292 	299.9999999118782 	2.556576339083784e-07 	101324.9998954803
-1.03978978978979 	300.0000000121888 	1.468542332921486e-07 	101325.0000139262
-1.037287287287287 	300.000000112616 	3.243726171557949e-07 	101325.0001324983
-1.034784784784785 	300.0000002130813 	6.153734518408111e-07 	101325.0002512651
-1.032282282282283 	300.0000003131782 	9.043577518592228e-07 	101325.000369791
-1.02977977977978 	300.0000004095177 	1.183069375176629e-06 	101325.0004838529
-1.027277277277277 	300.0000005004782 	1.447931296187785e-06 	101325.0005913745
-1.024774774774775 	300.0000005895923 	1.70649367991773e-06 	101325.0006964385
-1.022272272272272 	300.000000679392 	1.965324922703661e-06 	101325.0008023668
-1.01976976976977 	300.0000007680886 	2.222623542304489e-06 	101325.0009073919
-1.017267267267267 	300.0000008559651 	2.480757282811474e-06 	101325.0010117811
-1.014764764764765 	300.0000009494483 	2.754157596850024e-06 	101325.0011225624
-1.012262262262262 	300.0000010536077 	3.053469320641447e-06 	101325.0012453443
-1.00975975975976 	300.0000011642965 	3.368949533878034e-06 	101325.0013754271
-1.007257257257257 	300.0000012726061 	3.680530213471171e-06 	101325.0015029796
-1.004754754754755 	300.0000013753667 	3.980645182694749e-06 	101325.001624818
-1.002252252252252 	300.00000147628 	4.276322015859023e-06 	101325.001745203
-0.9997497497497498 	300.0000015777996 	4.570835996192345e-06 	101325.0018660386
-0.9972472472472473 	300.0000016768159 	4.855700837149889e-06 	101325.0019827945
-0.9947447447447449 	300.0000017703002 	5.125101092759949e-06 	101325.0020920803
-0.9922422422422421 	300.000001861652 	5.389926668895186e-06 	101325.0021988953
-0.9897397397397399 	300.0000019577363 	5.669283238946268e-06 	101325.0023124934
-0.9872372372372376 	300.0000020609858 	5.969206847729946e-06 	101325.0024357955
-0.9847347347347346 	300.0000021665984 	6.276158620575398e-06 	101325.0025621271
-0.9822322322322323 	300.0000022690711 	6.574042948522991e-06 	101325.002683673
-0.9797297297297296 	300.000002368762 	6.862420260892763e-06 	101325.0028005055
-0.9772272272272275 	300.0000024702067 	7.153352578775829e-06 	101325.0029187867
-0.9747247247247248 	300.0000025750836 	7.453276260618361e-06 	101325.0030417223
-0.9722222222222224 	300.0000026793111 	7.754022716013529e-06 	101325.0031652901
-0.9697197197197196 	300.0000027780397 	8.043276357944537e-06 	101325.0032833673
-0.9672172172172175 	300.0000028718645 	8.321153634670011e-06 	101325.0033958059
-0.9647147147147147 	300.0000029675532 	8.602458775296839e-06 	101325.0035097292
-0.9622122122122124 	300.0000030707297 	8.899942853263656e-06 	101325.0036314886
-0.9597097097097099 	300.0000031788229 	9.207461255485382e-06 	101325.0037583227
-0.9572072072072073 	300.0000032828956 	9.503909591186575e-06 	101325.0038802482
-0.9547047047047047 	300.0000033766963 	9.7743716116106e-06 	101325.0039902261
-0.9522022022022023 	300.0000034625715 	1.002554031106949e-05 	101325.0040913032
-0.9496996996996998 	300.0000035497865 	1.028089527980343e-05 	101325.0041942417
-0.9471971971971973 	300.0000036466596 	1.056132727306915e-05 	101325.0043086214
-0.9446946946946947 	300.0000037535767 	1.086803565615136e-05 	101325.0044349213
-0.9421921921921923 	300.000003863517 	1.11832669734409e-05 	101325.0045647136
-0.93968968968969 	300.0000039690559 	1.148820648420071e-05 	101325.0046893131
-0.9371871871871872 	300.0000040687929 	1.177820413567613e-05 	101325.0048071777
-0.9346846846846848 	300.0000041653406 	1.205851985765109e-05 	101325.0049214847
-0.9321821821821823 	300.0000042592061 	1.232996366864649e-05 	101325.0050327626
-0.9296796796796799 	300.000004347416 	1.258559319003293e-05 	101325.005137411
-0.9271771771771771 	300.0000044281149 	1.282154434585999e-05 	101325.0052332103
-0.9246746746746748 	300.000004504757 	1.304716359346086e-05 	101325.0053240838
-0.9221721721721724 	300.0000045851605 	1.328323765060338e-05 	101325.0054192451
-0.9196696696696698 	300.000004676739 	1.354909630779252e-05 	101325.005527567
-0.9171671671671672 	300.000004780352 	1.384594407077312e-05 	101325.0056500714
-0.9146646646646649 	300.0000048871841 	1.415021780748335e-05 	101325.0057762744
-0.9121621621621623 	300.0000049842178 	1.442925646828038e-05 	101325.005890942
-0.9096596596596597 	300.0000050663868 	1.467085979301483e-05 	101325.0059881869
-0.9071571571571573 	300.0000051422397 	1.489568446705512e-05 	101325.0060779342
-0.9046546546546547 	300.0000052241277 	1.513382026900908e-05 	101325.0061748268
-0.9021521521521524 	300.0000053138289 	1.538985427764283e-05 	101325.0062810281
-0.8996496496496498 	300.0000054010101 	1.563899672113448e-05 	101325.0063841794
-0.8971471471471473 	300.0000054766867 	1.586012692411989e-05 	101325.0064737104
-0.894644644644645 	300.0000055452302 	1.606389176282221e-05 	101325.0065548506
-0.892142142142142 	300.0000056189474 	1.627970562706122e-05 	101325.0066421337
-0.8896396396396397 	300.0000057025935 	1.651917847029862e-05 	101325.0067411355
-0.8871371371371374 	300.0000057882349 	1.676387677221255e-05 	101325.0068425214
-0.8846346346346349 	300.0000058666874 	1.699151245018357e-05 	101325.0069352927
-0.8821321321321324 	300.0000059388079 	1.720348185826676e-05 	101325.0070205012
-0.8796296296296297 	300.0000060125172 	1.741825670253764e-05 	101325.0071076218
-0.8771271271271271 	300.000006090856 	1.764304275406674e-05 	101325.0072002826
-0.8746246246246248 	300.0000061678381 	1.786352298537214e-05 	101325.007291321
-0.8721221221221224 	300.0000062365558 	1.806297335076022e-05 	101325.0073725588
-0.8696196196196196 	300.0000062978997 	1.824315313080528e-05 	101325.0074450399
-0.8671171171171175 	300.0000063586342 	1.8420294504768e-05 	101325.0075167797
-0.8646146146146148 	300.0000064224403 	1.860400980975339e-05 	101325.0075923308
-0.8621121121121121 	300.0000064860509 	1.878639291439516e-05 	101325.0076676768
-0.8596096096096097 	300.0000065437007 	1.89535916550058e-05 	101325.007735904
-0.857107107107107 	300.0000065951938 	1.910590550402377e-05 	101325.0077967507
-0.8546046046046049 	300.0000066487169 	1.926434521177171e-05 	101325.0078597827
-0.8521021021021022 	300.0000067143291 	1.945458782172091e-05 	101325.0079371322
-0.8495995995995997 	300.0000067937451 	1.968018696552836e-05 	101325.0080310644
-0.8470970970970974 	300.0000068752995 	1.991024202414327e-05 	101325.0081278062
-0.8445945945945946 	300.0000069413937 	2.009908975510023e-05 	101325.0082061995
-0.8420920920920922 	300.0000069838529 	2.022620738644722e-05 	101325.0082563683
-0.8395895895895897 	300.0000070130408 	2.031818667918975e-05 	101325.0082906304
-0.8370870870870872 	300.0000070487907 	2.042470261522699e-05 	101325.0083325678
-0.8345845845845846 	300.0000070999041 	2.056808145904348e-05 	101325.0083928776
-0.8320820820820823 	300.0000071548627 	2.072077046417036e-05 	101325.008458136
-0.8295795795795798 	300.0000071960429 	2.084036851359515e-05 	101325.0085072806
-0.8270770770770772 	300.000007222807 	2.092634269386015e-05 	101325.0085391786
-0.8245745745745746 	300.0000072562873 	2.103105131400694e-05 	101325.0085787035
-0.8220720720720721 	300.0000073170119 	2.120309756609573e-05 	101325.0086500886
-0.8195695695695699 	300.0000073969402 	2.141967782265925e-05 	101325.0087441643
-0.817067067067067 	300.0000074592552 	2.158759505833119e-05 	101325.0088177852
-0.8145645645645651 	300.0000074714182 	2.162655406944634e-05 	101325.0088324724
-0.8120620620620621 	300.0000074410353 	2.15583966895406e-05 	101325.0087969299
-0.8095595595595597 	300.0000074164299 	2.150708307976302e-05 	101325.008768092
-0.8070570570570572 	300.0000074463429 	2.159555757002522e-05 	101325.0088034433
-0.8045545545545546 	300.0000075338996 	2.182944783679147e-05 	101325.0089065906
-0.8020520520520523 	300.0000076288345 	2.207941552054185e-05 	101325.009018316
-0.7995495495495494 	300.0000076690094 	2.218750538664337e-05 	101325.0090655159
-0.7970470470470474 	300.0000076356494 	2.2107819202728e-05 	101325.0090261822
-0.7945445445445446 	300.0000075734966 	2.195645215358225e-05 	101325.0089530838
-0.7920420420420423 	300.0000075556213 	2.192160926516864e-05 	101325.0089324719
-0.7895395395395397 	300.0000076228326 	2.210697712398622e-05 	101325.0090124199
-0.7870370370370371 	300.0000077473912 	2.243883037748923e-05 	101325.0091599496
-0.7845345345345348 	300.0000078520366 	2.271537335039302e-05 	101325.0092836004
-0.7820320320320323 	300.000007868724 	2.27593813091158e-05 	101325.0093028596
-0.7795295295295296 	300.0000077907735 	2.255479293476512e-05 	101325.0092100086
-0.7770270270270272 	300.0000076794557 	2.226226294146745e-05 	101325.0090776012
-0.7745245245245247 	300.0000076187114 	2.210278060119679e-05 	101325.0090051841
-0.7720220220220222 	300.0000076549379 	2.219855967226005e-05 	101325.0090478301
-0.7695195195195199 	300.00000776421 	2.248710115958919e-05 	101325.0091774231
-0.767017017017017 	300.0000078699054 	2.276623551592622e-05 	101325.0093032531
-0.7645145145145147 	300.0000078957692 	2.283401493567471e-05 	101325.009334985
-0.7620120120120122 	300.0000078171882 	2.262564803015291e-05 	101325.0092432873
-0.7595095095095097 	300.0000076788169 	2.225990658269708e-05 	101325.0090807465
-0.7570070070070072 	300.0000075675259 	2.196811158982946e-05 	101325.0089497437
-0.7545045045045048 	300.0000075599193 	2.195526224655113e-05 	101325.0089408722
-0.7520020020020022 	300.0000076772454 	2.22772585830109e-05 	101325.0090795101
-0.7494994994994997 	300.0000078706192 	2.28013809453931e-05 	101325.0093078933
-0.7469969969969972 	300.0000080447379 	2.3269049831104e-05 	101325.0095134497
-0.7444944944944945 	300.0000081044876 	2.342123234209332e-05 	101325.0095838714
-0.7419919919919924 	300.0000079990502 	2.312042635238227e-05 	101325.0094589816
-0.7394894894894897 	300.0000077466404 	2.24183830192024e-05 	101325.009160321
-0.7369869869869872 	300.0000074297212 	2.154087300264663e-05 	101325.0087852167
-0.7344844844844846 	300.0000071606153 	2.079837631617206e-05 	101325.0084665932
-0.7319819819819822 	300.0000070402735 	2.047156252196825e-05 	101325.0083237188
-0.7294794794794797 	300.0000071254868 	2.071764147562353e-05 	101325.0084239414
-0.7269769769769773 	300.0000074103814 	2.151827527159232e-05 	101325.0087603101
-0.7244744744744747 	300.0000078262082 	2.268281988083891e-05 	101325.0092516774
-0.721971971971972 	300.000008264287 	2.390951258226282e-05 	101325.0097696279
-0.7194694694694695 	300.0000086098187 	2.487462430264567e-05 	101325.0101782524
-0.7169669669669674 	300.0000087677136 	2.530827673983542e-05 	101325.0103652636
-0.7144644644644647 	300.0000086785745 	2.504063214022376e-05 	101325.0102602102
-0.711961961961962 	300.0000083248285 	2.402115314517231e-05 	101325.0098423372
-0.7094594594594597 	300.0000077294898 	2.231416102718154e-05 	101325.0091388369
-0.7069569569569573 	300.0000069475188 	2.00741032210859e-05 	101325.0082145988
-0.7044544544544545 	300.0000060520229 	1.750696744170667e-05 	101325.0071560352
-0.7019519519519523 	300.000005118808 	1.482705763306575e-05 	101325.0060528091
-0.6994494494494495 	300.0000042129661 	1.221988150038545e-05 	101325.004981922
-0.6969469469469471 	300.0000033812989 	9.820501939985167e-06 	101325.0039985761
-0.6944444444444446 	300.0000026511604 	7.709716993628484e-06 	101325.0031352247
-0.6919419419419421 	300.00000203387 	5.921761838991336e-06 	101325.0024052205
-0.6894394394394396 	300.0000015285767 	4.456013067176264e-06 	101325.0018077472
-0.6869369369369374 	300.0000011268336 	3.288697467530129e-06 	101325.0013326462
-0.6844344344344344 	300.0000008155765 	2.382981236895766e-06 	101325.0009645446
-0.6819319319319321 	300.0000005800203 	1.696767641373747e-06 	101325.000686033
-0.6794294294294296 	300.0000004056836 	1.188154597871545e-06 	101325.000479872
-0.6769269269269272 	300.0000002792311 	8.188043509058693e-07 	101325.0003303471
-0.6744244244244245 	300.0000001893175 	5.556751814204715e-07 	101325.0002239526
-0.6719219219219222 	300.0000001264436 	3.715768178671028e-07 	101325.0001496006
-0.6694194194194195 	300.0000000832942 	2.449575545937791e-07 	101325.0000985213
-0.6669169169169172 	300.0000000541254 	1.592806558601591e-07 	101325.000063996
-0.6644144144144146 	300.0000000346542 	1.022004779215371e-07 	101325.0000410197
-0.661911911911912 	300.0000000219167 	6.47367888036301e-08 	101325.000025955
-0.6594094094094097 	300.0000000136936 	4.049462888758579e-08 	101325.0000162179
-0.656906906906907 	300.0000000084098 	2.502538636678424e-08 	101325.0000100103
-0.6544044044044046 	300.0000000051147 	1.528140130281328e-08 	101325.0000061054
-0.6519019019019021 	300.0000000030983 	9.226520566469097e-09 	101325.0000036802
-0.6493993993993996 	300.0000000018818 	5.505713442402934e-09 	101325.0000021925
-0.6468968968968971 	300.000000001129 	3.252859969727078e-09 	101325.0000012908
-0.6443943943943946 	300.0000000006391 	1.897833988530974e-09 	101325.0000007508
-0.6418918918918921 	300.0000000003662 	1.098568689997737e-09 	101325.000000431
-0.6393893893893897 	300.0000000002098 	6.276785551048355e-10 	101325.0000002437
-0.6368868868868871 	300.0000000001026 	3.564804462962068e-10 	101325.0000001352
-0.6343843843843846 	300.0000000000586 	1.99621697343907e-10 	101325.000000073
-0.6318818818818821 	299.9999999999927 	1.112039117410669e-10 	101325.0000000377
-0.6293793793793795 	300.0000000000218 	6.121014419756205e-11 	101325.000000018
-0.6268768768768773 	300.0000000000307 	3.319464186252202e-11 	101325.000000007
-0.6243743743743745 	299.9999999999851 	1.895069896777377e-11 	101325.0000000009
-0.6218718718718721 	300.0000000000076 	9.568907893212103e-12 	101324.9999999976
-0.6193693693693696 	299.9999999999426 	6.008603549238934e-12 	101324.9999999959
-0.6168668668668671 	299.9999999999801 	2.290502947722671e-12 	101324.9999999949
-0.6143643643643645 	300.0000000000151 	2.31356300474352e-12 	101324.9999999942
-0.6118618618618621 	299.9999999999863 	8.674379866407112e-13 	101324.9999999939
-0.6093593593593596 	299.9999999999902 	1.123869798396564e-12 	101324.9999999936
-0.6068568568568571 	299.9999999999927 	5.632401731569343e-13 	101324.9999999936
-0.6043543543543546 	299.999999999958 	1.137923374084942e-12 	101324.9999999934
-0.6018518518518521 	299.9999999999659 	6.217811096948626e-13 	101324.9999999933
-0.5993493493493496 	299.999999999947 	1.19301504158529e-12 	101324.9999999932
-0.5968468468468471 	299.9999999999549 	9.716420149177753e-13 	101324.9999999931
-0.5943443443443446 	299.9999999999931 	1.691413565018045e-12 	101324.9999999932
-0.591841841841842 	299.9999999999669 	1.48651595894484e-12 	101324.9999999933
-0.5893393393393397 	299.9999999999465 	2.013781526256135e-12 	101324.9999999934
-0.5868368368368371 	299.9999999999929 	2.415664363398134e-12 	101324.9999999935
-0.5843343343343346 	300.0000000000031 	2.504320160791293e-12 	101324.9999999936
-0.5818318318318321 	300.0000000000317 	2.64138033394623e-12 	101324.9999999937
-0.5793293293293297 	299.9999999999914 	2.42498321686799e-12 	101324.9999999938
-0.5768268268268271 	300.0000000000065 	1.835088348269735e-12 	101324.9999999939
-0.5743243243243245 	300.0000000000197 	1.610272930849069e-12 	101324.9999999939
-0.5718218218218221 	300.0000000000166 	7.79920946476376e-13 	101324.9999999941
-0.5693193193193196 	300.0000000000402 	3.655732583736231e-13 	101324.999999994
-0.5668168168168171 	299.9999999999861 	1.326857679749104e-12 	101324.9999999938
-0.5643143143143147 	299.9999999999489 	1.240140455684114e-12 	101324.9999999937
-0.5618118118118121 	300.0000000000097 	2.83627877750641e-12 	101324.9999999937
-0.5593093093093094 	300.0000000000312 	1.766272956300318e-12 	101324.9999999938
-0.5568068068068072 	300.0000000000138 	3.275289221357496e-12 	101324.9999999938
-0.5543043043043046 	300.0000000000118 	2.581272312045989e-12 	101324.9999999937
-0.551801801801802 	299.9999999999567 	3.27875113631418e-12 	101324.9999999934
-0.5492992992992995 	299.9999999999944 	2.157556382109849e-12 	101324.9999999932
-0.5467967967967969 	300.0000000000102 	3.253106513129666e-12 	101324.999999993
-0.5442942942942947 	300.0000000000051 	2.157002439882574e-12 	101324.9999999928
-0.5417917917917919 	299.999999999961 	3.285345346914368e-12 	101324.9999999928
-0.5392892892892895 	299.9999999999371 	1.103984584491892e-12 	101324.9999999929
-0.536786786786787 	299.9999999999566 	2.617397653297768e-12 	101324.9999999928
-0.5342842842842846 	299.9999999999632 	1.75440778153474e-12 	101324.9999999927
-0.531781781781782 	299.9999999999361 	2.443005627403422e-12 	101324.9999999927
-0.5292792792792794 	299.9999999999309 	2.934643274584995e-12 	101324.9999999926
-0.526776776776777 	299.9999999999123 	3.385459397383834e-12 	101324.9999999927
-0.5242742742742745 	299.9999999999773 	4.246509257935313e-12 	101324.9999999925
-0.521771771771772 	300.0000000000138 	4.989571179379179e-12 	101324.9999999925
-0.5192692692692695 	299.9999999999632 	5.137149161896121e-12 	101324.9999999923
-0.516766766766767 	300.000000000004 	5.118957354341494e-12 	101324.9999999922
-0.5142642642642645 	299.9999999999772 	4.628006608712128e-12 	101324.9999999921
-0.511761761761762 	299.9999999999553 	4.237953732528063e-12 	101324.9999999919
-0.5092592592592596 	299.9999999999729 	4.00351426927197e-12 	101324.9999999921
-0.506756756756757 	299.9999999999434 	3.508187709518268e-12 	101324.9999999922
-0.5042542542542544 	299.9999999999887 	2.739815815617569e-12 	101324.9999999922
-0.5017517517517521 	300.0000000000231 	3.264627196293863e-12 	101324.9999999921
-0.4992492492492494 	300.0000000000265 	7.584001317692373e-13 	101324.9999999921
-0.496746746746747 	299.999999999983 	3.812292395641647e-12 	101324.999999992
-0.4942442442442445 	299.9999999999509 	2.046978709767362e-12 	101324.9999999919
-0.4917417417417421 	299.9999999999451 	4.061162619628623e-12 	101324.9999999921
-0.4892392392392395 	299.9999999999579 	1.729034695298867e-12 	101324.9999999923
-0.486736736736737 	299.9999999999595 	3.17924255585388e-12 	101324.9999999925
-0.4842342342342345 	299.9999999999279 	7.720423772177655e-13 	101324.9999999926
-0.481731731731732 	300.0000000000321 	3.130679254229709e-12 	101324.9999999926
-0.4792292292292296 	300.0000000000198 	1.247308554744631e-12 	101324.9999999925
-0.4767267267267268 	299.9999999999608 	3.561234519018976e-12 	101324.9999999923
-0.4742242242242246 	299.9999999999968 	2.850110551294302e-12 	101324.9999999923
-0.471721721721722 	299.9999999999642 	2.825902324899708e-12 	101324.9999999922
-0.4692192192192195 	299.9999999999824 	2.108251433446101e-12 	101324.9999999922
-0.4667167167167169 	299.9999999999221 	2.323254558126449e-12 	101324.9999999921
-0.4642142142142145 	299.9999999999944 	1.094713000223769e-12 	101324.999999992
-0.461711711711712 	300.0000000000141 	2.560261949230378e-12 	101324.9999999921
-0.4592092092092094 	300.0000000000109 	5.474013337138489e-13 	101324.9999999922
-0.456706706706707 	300.0000000000448 	2.649852214011432e-12 	101324.9999999923
-0.4542042042042045 	299.9999999999454 	1.977375519314053e-12 	101324.9999999922
-0.451701701701702 	299.9999999999548 	3.647246298488344e-12 	101324.9999999922
-0.4491991991991995 	299.9999999999611 	2.352989784521776e-12 	101324.999999992
-0.4466966966966969 	299.9999999999554 	4.247272315676269e-12 	101324.9999999922
-0.4441941941941945 	299.9999999999912 	1.710416508690189e-12 	101324.9999999924
-0.441691691691692 	299.999999999962 	4.037563699806981e-12 	101324.9999999924
-0.4391891891891895 	299.9999999999882 	1.249648732237691e-12 	101324.9999999924
-0.436686686686687 	299.9999999999679 	4.596100097132075e-12 	101324.9999999927
-0.4341841841841846 	299.9999999999997 	2.441217728511672e-12 	101324.9999999927
-0.431681681681682 	299.9999999999556 	3.757127661020941e-12 	101324.9999999925
-0.4291791791791794 	299.9999999999357 	1.440421241075657e-12 	101324.9999999922
-0.426676676676677 	299.9999999999199 	3.162078570385839e-12 	101324.999999992
-0.4241741741741744 	299.9999999999689 	1.128789310732626e-12 	101324.9999999921
-0.421671671671672 	299.9999999999988 	2.718295437092385e-12 	101324.9999999922
-0.4191691691691694 	300.00000000004 	7.593507957473985e-13 	101324.9999999922
-0.4166666666666669 	300.0000000000479 	2.611314859162113e-12 	101324.9999999923
-0.4141641641641645 	299.9999999999434 	1.431442865554371e-12 	101324.9999999921
-0.411661661661662 	300.000000000004 	2.828822782680153e-12 	101324.999999992
-0.4091591591591594 	300.0000000000028 	2.194480397999712e-12 	101324.9999999918
-0.406656656656657 	299.9999999999573 	3.144800999341968e-12 	101324.9999999919
-0.4041541541541545 	300.0000000000132 	1.034390399675928e-12 	101324.9999999922
-0.401651651651652 	299.9999999999293 	3.11740935406041e-12 	101324.9999999921
-0.3991491491491494 	300.0000000000013 	1.358129844959654e-12 	101324.9999999918
-0.396646646646647 	299.9999999999618 	3.881574848113098e-12 	101324.9999999919
-0.3941441441441444 	299.9999999999795 	1.951888290642512e-12 	101324.999999992
-0.3916416416416419 	299.9999999999366 	3.946638148857472e-12 	101324.9999999922
-0.3891391391391395 	299.999999999964 	8.871061202994919e-13 	101324.9999999923
-0.3866366366366368 	299.9999999999624 	2.621459453090481e-12 	101324.9999999925
-0.3841341341341344 	299.9999999999974 	1.073919913942559e-12 	101324.9999999925
-0.381631631631632 	299.9999999999586 	2.463958774016843e-12 	101324.9999999923
-0.3791291291291294 	300.000000000003 	1.897446901732799e-12 	101324.9999999921
-0.3766266266266269 	300.0000000000193 	2.212770367217581e-12 	101324.9999999919
-0.3741241241241244 	300.0000000000215 	3.435831406929056e-12 	101324.9999999916
-0.371621621621622 	300.000000000019 	2.198327290485729e-12 	101324.9999999917
-0.3691191191191194 	300.000000000002 	4.787542992311425e-12 	101324.9999999919
-0.366616616616617 	300.0000000000001 	1.497021538683902e-12 	101324.9999999919
-0.3641141141141143 	299.9999999999703 	3.900620656731519e-12 	101324.9999999919
-0.3616116116116119 	299.9999999999546 	2.040352405989867e-12 	101324.999999992
-0.3591091091091095 	299.9999999999865 	3.325458522541035e-12 	101324.9999999918
-0.356606606606607 	299.9999999999905 	2.103937942530742e-12 	101324.9999999916
-0.3541041041041044 	299.9999999999887 	1.800139842941553e-12 	101324.9999999916
-0.3516016016016019 	300.0000000000079 	2.450254700721323e-12 	101324.9999999918
-0.3490990990990994 	299.9999999999916 	1.456383441686084e-12 	101324.9999999919
-0.346596596596597 	300.0000000000323 	4.140463146479421e-12 	101324.9999999921
-0.3440940940940944 	300.0000000000398 	2.430134449415078e-12 	101324.9999999922
-0.3415915915915919 	300.0000000000218 	5.226097640797213e-12 	101324.9999999921
-0.3390890890890895 	299.9999999999837 	4.153221909983788e-12 	101324.9999999919
-0.3365865865865869 	300.0000000000177 	5.269013496054298e-12 	101324.9999999921
-0.3340840840840844 	299.9999999999992 	4.271153439988108e-12 	101324.9999999921
-0.3315815815815819 	300.0000000000187 	4.867455172980136e-12 	101324.999999992
-0.3290790790790794 	300.0000000000186 	4.429787406433904e-12 	101324.999999992
-0.3265765765765769 	299.9999999999378 	4.401502843702394e-12 	101324.9999999922
-0.3240740740740744 	299.9999999999988 	3.000569737619681e-12 	101324.9999999923
-0.3215715715715718 	300.0000000000094 	3.956382991141552e-12 	101324.9999999923
-0.3190690690690695 	299.9999999999448 	1.978027816518486e-12 	101324.9999999922
-0.3165665665665668 	299.9999999999926 	2.708224435941127e-12 	101324.9999999924
-0.3140640640640644 	300.0000000000076 	4.392941780535955e-13 	101324.9999999923
-0.311561561561562 	299.9999999999344 	3.331987832422597e-12 	101324.9999999925
-0.3090590590590593 	299.9999999999908 	2.036335831918411e-12 	101324.9999999924
-0.3065565565565568 	300.000000000002 	4.413117948784557e-12 	101324.9999999922
-0.3040540540540545 	299.9999999999991 	2.600901097796537e-12 	101324.9999999921
-0.3015515515515518 	300.0000000000249 	4.148572885370073e-12 	101324.9999999919
-0.2990490490490494 	299.9999999999545 	7.80888019991004e-13 	101324.9999999919
-0.2965465465465469 	299.9999999999865 	2.941458588133682e-12 	101324.9999999916
-0.2940440440440444 	299.9999999999898 	1.771130861004578e-12 	101324.9999999914
-0.2915415415415418 	300.000000000003 	2.669578443381685e-12 	101324.9999999913
-0.2890390390390395 	300.0000000000045 	3.821052783152092e-12 	101324.9999999913
-0.2865365365365368 	299.9999999999812 	3.465812756580921e-12 	101324.9999999912
-0.2840340340340343 	299.9999999999949 	5.891341238943076e-12 	101324.9999999914
-0.2815315315315318 	299.9999999999408 	3.673471607985606e-12 	101324.9999999919
-0.2790290290290295 	299.9999999999688 	5.637739290703128e-12 	101324.9999999919
-0.2765265265265269 	300.0000000000051 	4.80522922572435e-12 	101324.9999999919
-0.2740240240240244 	300.0000000000182 	6.055135138308415e-12 	101324.9999999922
-0.2715215215215219 	300.0000000000167 	6.372580935903597e-12 	101324.9999999922
-0.2690190190190194 	299.9999999999461 	5.892266645553882e-12 	101324.9999999923
-0.2665165165165169 	299.9999999999999 	6.549622315462786e-12 	101324.9999999926
-0.2640140140140144 	299.9999999999746 	5.429866402608052e-12 	101324.9999999924
-0.2615115115115119 	300.0000000000024 	6.805430642199393e-12 	101324.9999999925
-0.2590090090090094 	299.9999999999404 	4.482289341193522e-12 	101324.9999999923
-0.2565065065065068 	299.9999999999893 	5.15815722735687e-12 	101324.9999999925
-0.2540040040040044 	299.9999999999949 	4.973421244935316e-12 	101324.9999999925
-0.2515015015015019 	300.0000000000299 	4.731012817388581e-12 	101324.9999999924
-0.2489989989989994 	300.0000000000335 	6.555556430699828e-12 	101324.9999999922
-0.2464964964964968 	299.9999999999899 	4.467301509988324e-12 	101324.999999992
-0.2439939939939944 	300.0000000000021 	7.422122299554118e-12 	101324.999999992
-0.2414914914914919 	299.9999999999757 	3.262584689538123e-12 	101324.9999999921
-0.2389889889889893 	299.9999999999964 	6.254502477966858e-12 	101324.9999999918
-0.2364864864864869 	300.0000000000231 	2.345249314745235e-12 	101324.9999999919
-0.2339839839839843 	299.9999999999425 	6.111250421842817e-12 	101324.999999992
-0.2314814814814819 	299.9999999999847 	2.150556587997752e-12 	101324.9999999919
-0.2289789789789792 	299.9999999999246 	5.3642007309976e-12 	101324.9999999918
-0.2264764764764769 	299.9999999999591 	3.38176826567202e-12 	101324.9999999918
-0.2239739739739743 	299.9999999999687 	4.749578457795146e-12 	101324.999999992
-0.2214714714714718 	299.9999999999482 	4.093274803731396e-12 	101324.9999999922
-0.2189689689689693 	299.9999999999737 	3.060021855331525e-12 	101324.9999999923
-0.2164664664664669 	299.9999999999823 	4.578964094472114e-12 	101324.9999999923
-0.2139639639639643 	299.9999999999395 	2.794599449149898e-12 	101324.9999999922
-0.2114614614614618 	299.9999999999817 	3.630507930971102e-12 	101324.9999999922
-0.2089589589589593 	299.9999999999898 	2.748373105312592e-12 	101324.9999999921
-0.2064564564564568 	299.9999999999887 	3.125487446307279e-12 	101324.9999999921
-0.2039539539539543 	299.999999999926 	4.382021914523288e-12 	101324.9999999923
-0.2014514514514518 	299.9999999999568 	2.021238744274691e-12 	101324.9999999924
-0.1989489489489494 	299.9999999999706 	4.367794416370574e-12 	101324.9999999926
-0.1964464464464468 	299.9999999999914 	8.965983423948783e-13 	101324.9999999925
-0.1939439439439443 	299.9999999999918 	4.253079230973723e-12 	101324.9999999926
-0.1914414414414418 	299.9999999999308 	2.293875263670727e-12 	101324.9999999927
-0.1889389389389393 	300.0000000000111 	3.746576847868061e-12 	101324.9999999925
-0.1864364364364368 	300.0000000000387 	3.123358709090256e-12 	101324.9999999927
-0.1839339339339343 	299.9999999999829 	4.052192719580846e-12 	101324.9999999925
-0.1814314314314318 	299.9999999999973 	3.5383265947622e-12 	101324.9999999925
-0.1789289289289293 	299.9999999999193 	3.947743135123417e-12 	101324.9999999923
-0.1764264264264268 	299.9999999999819 	2.240394208841487e-12 	101324.9999999924
-0.1739239239239243 	299.9999999999185 	3.801066659375041e-12 	101324.9999999922
-0.1714214214214218 	299.9999999999819 	1.091211587150132e-12 	101324.9999999923
-0.1689189189189193 	299.9999999999562 	5.012321246779768e-12 	101324.9999999927
-0.1664164164164168 	299.999999999999 	5.475849349408134e-13 	101324.9999999929
-0.1639139139139143 	299.9999999999883 	6.258397882481046e-12 	101324.9999999932
-0.1614114114114118 	300.0000000000236 	2.412001267192592e-12 	101324.9999999933
-0.1589089089089093 	299.9999999999987 	7.63312956612478e-12 	101324.9999999936
-0.1564064064064068 	299.9999999999887 	3.061085177446543e-12 	101324.9999999935
-0.1539039039039043 	299.9999999999942 	8.305384757880352e-12 	101324.9999999932
-0.1514014014014018 	300.000000000021 	2.577132637726632e-12 	101324.9999999932
-0.1488988988988993 	299.9999999999915 	7.880276850952283e-12 	101324.9999999933
-0.1463963963963968 	300.0000000000011 	1.016573705366654e-12 	101324.9999999933
-0.1438938938938943 	299.9999999999641 	6.685863347986989e-12 	101324.9999999931
-0.1413913913913918 	299.9999999999419 	1.359380304333985e-12 	101324.9999999929
-0.1388888888888893 	299.9999999999836 	5.497808474853096e-12 	101324.9999999926
-0.1363863863863868 	299.9999999999118 	2.392159307477183e-12 	101324.9999999927
-0.1338838838838843 	299.9999999999234 	4.144012595634175e-12 	101324.9999999927
-0.1313813813813818 	299.9999999999943 	2.13366484857374e-12 	101324.9999999927
-0.1288788788788793 	299.9999999999636 	3.44765989899424e-12 	101324.9999999929
-0.1263763763763768 	299.999999999971 	1.336639122242771e-12 	101324.9999999929
-0.1238738738738743 	299.9999999999329 	2.766695332736967e-12 	101324.999999993
-0.1213713713713717 	299.9999999999732 	5.000971374557461e-13 	101324.9999999929
-0.1188688688688693 	300.000000000004 	2.959049424100339e-12 	101324.9999999928
-0.1163663663663668 	299.9999999999253 	1.435766387870744e-12 	101324.9999999929
-0.1138638638638643 	299.9999999999966 	3.005655888145781e-12 	101324.9999999929
-0.1113613613613618 	299.9999999999908 	2.037069715728848e-12 	101324.9999999928
-0.1088588588588592 	299.9999999999825 	4.370759294984574e-12 	101324.999999993
-0.1063563563563568 	299.9999999999548 	1.24400653598402e-12 	101324.9999999934
-0.1038538538538543 	299.9999999999736 	3.895986707563639e-12 	101324.9999999934
-0.1013513513513517 	300.0000000000138 	8.628196827428672e-13 	101324.9999999934
-0.09884884884884926 	299.9999999999499 	4.177948457002755e-12 	101324.9999999933
-0.09634634634634676 	299.9999999999055 	1.251783914782482e-12 	101324.9999999935
-0.09384384384384425 	299.9999999999422 	2.080692508894322e-12 	101324.9999999934
-0.09134134134134177 	300.0000000000213 	6.963858879177967e-13 	101324.9999999937
-0.08883883883883925 	300.0000000000105 	1.834330082578751e-12 	101324.9999999939
-0.08633633633633674 	299.9999999999571 	2.226383272083767e-12 	101324.9999999941
-0.08383383383383426 	300.0000000000086 	2.274067711341058e-12 	101324.999999994
-0.08133133133133173 	299.9999999999748 	2.657929500621946e-12 	101324.9999999936
-0.07882882882882926 	299.9999999998993 	1.601697007970963e-12 	101324.9999999934
-0.07632632632632676 	299.9999999999641 	1.581580698292606e-12 	101324.9999999931
-0.07382382382382424 	299.9999999999135 	1.165025432623023e-12 	101324.9999999932
-0.07132132132132173 	300.0000000000115 	1.017439877911102e-12 	101324.9999999932
-0.06881881881881925 	299.9999999999582 	1.556837762010527e-12 	101324.9999999932
-0.06631631631631671 	299.9999999999109 	1.275110368700282e-12 	101324.9999999933
-0.06381381381381425 	299.9999999999675 	1.080380240714916e-12 	101324.9999999931
-0.06131131131131173 	299.9999999999699 	1.441942401409889e-12 	101324.9999999928
-0.05880880880880923 	299.9999999999364 	1.399644173361621e-12 	101324.9999999926
-0.05630630630630672 	299.9999999999801 	1.277624138724047e-12 	101324.9999999927
-0.05380380380380424 	300.0000000000152 	1.348065066499831e-12 	101324.9999999924
-0.05130130130130173 	300.0000000000101 	1.30956515547197e-12 	101324.9999999926
-0.04879879879879922 	299.9999999999436 	1.875594732912335e-12 	101324.9999999924
-0.04629629629629672 	299.9999999999297 	1.916899265888289e-12 	101324.9999999923
-0.04379379379379422 	299.9999999999391 	1.9318425169925e-12 	101324.9999999927
-0.04129129129129173 	299.9999999999795 	1.454664290018832e-12 	101324.9999999929
-0.03878878878878922 	299.999999999988 	6.804887113951859e-13 	101324.9999999929
-0.03628628628628671 	299.9999999999866 	3.960002549253978e-13 	101324.9999999929
-0.03378378378378422 	299.9999999999369 	2.681178915914362e-13 	101324.9999999929
-0.03128128128128172 	299.9999999999692 	6.701361822762402e-13 	101324.9999999924
-0.02877877877877922 	299.9999999999712 	9.387091180896641e-13 	101324.9999999924
-0.0262762762762767 	299.9999999999147 	1.481723468202543e-12 	101324.9999999923
-0.02377377377377422 	300.0000000000181 	1.390271600834575e-12 	101324.9999999922
-0.0212712712712717 	299.9999999999148 	1.348208260806134e-12 	101324.9999999923
-0.01876876876876921 	299.9999999999744 	1.435118165010774e-12 	101324.9999999924
-0.01626626626626671 	300.0000000000127 	7.06414460655785e-13 	101324.9999999927
-0.0137637637637642 	299.9999999999742 	1.633675404247638e-12 	101324.9999999926
-0.0112612612612617 	300.0000000000092 	1.178286489423194e-12 	101324.9999999925
-0.008758758758759198 	299.9999999999911 	1.248371847803208e-12 	101324.9999999925
-0.006256256256256697 	299.999999999902 	7.460642672270148e-13 	101324.9999999925
-0.003753753753754195 	299.9999999999579 	9.73001136482887e-13 	101324.9999999924
-0.001251251251251693 	299.9999999999374 	3.954039169586869e-13 	101324.9999999922
0.00125125125125081 	299.9999999999613 	2.224429248267977e-14 	101324.9999999923
0.003753753753753312 	299.9999999999651 	1.515802141264647e-12 	101324.9999999922
0.006256256256255817 	299.9999999998983 	8.856195919586794e-13 	101324.9999999922
0.008758758758758317 	299.9999999999941 	1.090988583869148e-12 	101324.9999999921
0.01126126126126082 	300.0000000000057 	5.924843885910187e-13 	101324.9999999922
0.01376376376376332 	299.9999999999725 	3.431631361633039e-13 	101324.9999999924
0.01626626626626582 	300.0000000000124 	5.383050922026421e-13 	101324.9999999922
0.01876876876876833 	299.9999999999588 	2.877586893928136e-14 	101324.9999999923
0.02127127127127083 	299.9999999999771 	4.759581988922489e-13 	101324.9999999923
0.02377377377377332 	299.9999999999961 	8.195466901188587e-14 	101324.9999999925
0.02627627627627583 	299.9999999999134 	4.907365530823639e-13 	101324.9999999926
0.02877877877877833 	300.0000000000062 	9.156109757627113e-13 	101324.9999999924
0.03128128128128083 	299.9999999999569 	8.434592265041748e-13 	101324.9999999924
0.03378378378378333 	299.9999999999159 	1.361011137543899e-12 	101324.9999999923
0.03628628628628584 	299.9999999999703 	1.584702196442647e-12 	101324.9999999925
0.03878878878878834 	299.9999999999844 	1.8514816933302e-12 	101324.9999999927
0.04129129129129084 	299.9999999999798 	1.837936910364252e-12 	101324.9999999929
0.04379379379379333 	299.9999999999508 	1.832850977073469e-12 	101324.9999999928
0.04629629629629585 	299.9999999999087 	2.032714052590062e-12 	101324.9999999929
0.04879879879879834 	299.9999999999653 	2.605442435100417e-12 	101324.9999999928
0.05130130130130085 	300.0000000000123 	2.377048560508745e-12 	101324.9999999931
0.05380380380380335 	300.0000000000161 	2.486538758238399e-12 	101324.999999993
0.05630630630630584 	299.9999999999965 	2.144424021637145e-12 	101324.9999999931
0.05880880880880836 	299.9999999999334 	2.383629349366885e-12 	101324.999999993
0.06131131131131085 	299.9999999999742 	2.198637964148506e-12 	101324.9999999927
0.06381381381381336 	299.9999999999637 	1.861921741567345e-12 	101324.9999999925
0.06631631631631586 	299.9999999999096 	1.700165269465377e-12 	101324.9999999927
0.06881881881881835 	299.999999999966 	2.181688488210264e-12 	101324.9999999928
0.07132132132132088 	299.9999999999886 	1.796524742890706e-12 	101324.999999993
0.07382382382382337 	299.999999999918 	1.795217225493685e-12 	101324.9999999929
0.07632632632632587 	299.9999999999721 	1.60130918326759e-12 	101324.9999999928
0.07882882882882837 	299.9999999999526 	1.033882731832849e-12 	101324.9999999925
0.08133133133133086 	299.9999999999815 	8.539990287730717e-13 	101324.9999999924
0.08383383383383337 	299.9999999999916 	3.893057267056108e-13 	101324.9999999924
0.08633633633633589 	299.9999999999232 	7.914955990720311e-13 	101324.9999999922
0.08883883883883838 	300.0000000000011 	1.576198387237094e-12 	101324.9999999922
0.09134134134134086 	299.999999999981 	1.455326412072286e-12 	101324.9999999923
0.09384384384384339 	299.9999999999117 	2.114095201569583e-12 	101324.9999999924
0.09634634634634588 	299.9999999999728 	2.960144669034493e-12 	101324.999999992
0.09884884884884838 	299.9999999999768 	3.186018600141488e-12 	101324.9999999922
0.1013513513513509 	300.0000000000168 	3.391937172497157e-12 	101324.9999999926
0.1038538538538534 	299.9999999999613 	3.275497487561572e-12 	101324.9999999928
0.1063563563563559 	300.0000000000055 	3.81283201352216e-12 	101324.9999999928
0.1088588588588584 	300.0000000000185 	3.23292928958403e-12 	101324.9999999933
0.1113613613613609 	299.9999999999278 	2.759591986253024e-12 	101324.9999999933
0.1138638638638634 	299.9999999999528 	2.599264896611067e-12 	101324.9999999931
0.1163663663663659 	299.9999999999596 	2.306252990572418e-12 	101324.9999999932
0.1188688688688684 	299.9999999999719 	2.246001344478052e-12 	101324.9999999931
0.1213713713713709 	299.9999999999977 	1.530072657491041e-12 	101324.9999999928
0.1238738738738734 	299.9999999999417 	2.065174934892857e-12 	101324.9999999927
0.1263763763763759 	299.999999999984 	2.240140891715629e-12 	101324.9999999926
0.1288788788788784 	299.9999999999848 	1.747362475386927e-12 	101324.9999999927
0.1313813813813809 	299.9999999999845 	1.992414218508004e-12 	101324.9999999927
0.1338838838838834 	299.9999999999802 	2.478939936747819e-12 	101324.9999999929
0.1363863863863859 	300.0000000000167 	3.029419430925879e-12 	101324.9999999929
0.1388888888888884 	300.0000000000423 	3.417495665922022e-12 	101324.9999999925
0.1413913913913909 	300.0000000000078 	3.806731641111393e-12 	101324.9999999924
0.1438938938938934 	299.999999999995 	4.385107790152283e-12 	101324.9999999925
0.1463963963963959 	299.999999999957 	2.931153100017817e-12 	101324.9999999925
0.1488988988988985 	299.9999999999271 	3.793371079677735e-12 	101324.9999999923
0.1514014014014009 	299.9999999999715 	2.551270422765695e-12 	101324.9999999923
0.1539039039039035 	299.9999999999694 	4.731828612362612e-12 	101324.9999999924
0.1564064064064059 	299.9999999999411 	1.935492283907696e-12 	101324.9999999924
0.1589089089089084 	299.9999999999806 	5.341632519108306e-12 	101324.9999999923
0.1614114114114109 	299.9999999999766 	1.985992939949594e-12 	101324.9999999922
0.1639139139139134 	299.9999999999235 	3.981342502600349e-12 	101324.9999999925
0.166416416416416 	300.000000000004 	2.389381752141366e-12 	101324.9999999926
0.1689189189189185 	300.0000000000234 	2.190738295358735e-12 	101324.9999999926
0.1714214214214209 	300.0000000000074 	2.121037618757326e-12 	101324.9999999925
0.1739239239239235 	299.9999999999877 	1.203640254202554e-12 	101324.9999999925
0.1764264264264259 	299.9999999999725 	3.119053640437148e-12 	101324.9999999924
0.1789289289289284 	300.0000000000044 	9.94795396691182e-13 	101324.9999999924
0.181431431431431 	299.9999999999669 	3.978297106355794e-12 	101324.9999999925
0.1839339339339334 	299.9999999999747 	2.429992739070964e-12 	101324.9999999924
0.186436436436436 	299.9999999999432 	3.544775282918686e-12 	101324.9999999924
0.1889389389389385 	299.9999999999832 	2.840763495328194e-12 	101324.9999999923
0.191441441441441 	299.999999999979 	2.923324689120124e-12 	101324.9999999925
0.1939439439439434 	299.9999999999305 	4.395876500511441e-12 	101324.9999999925
0.196446446446446 	299.9999999999565 	2.633677313051895e-12 	101324.9999999925
0.1989489489489485 	299.9999999999704 	4.694292716431831e-12 	101324.9999999927
0.2014514514514509 	299.9999999999854 	2.144093616109357e-12 	101324.9999999926
0.2039539539539535 	299.9999999999948 	3.530167931039204e-12 	101324.9999999926
0.2064564564564559 	299.999999999964 	2.733061823630731e-12 	101324.9999999924
0.2089589589589585 	299.9999999999898 	3.345076658720286e-12 	101324.9999999921
0.211461461461461 	299.9999999999401 	3.220906569055407e-12 	101324.999999992
0.2139639639639635 	299.9999999999843 	2.631316802123249e-12 	101324.9999999922
0.2164664664664659 	300.0000000000048 	3.79138993981845e-12 	101324.9999999922
0.2189689689689684 	300.0000000000051 	1.736000999207272e-12 	101324.9999999923
0.221471471471471 	299.9999999999986 	3.921399740885533e-12 	101324.9999999923
0.2239739739739735 	299.9999999999681 	1.756799060716533e-12 	101324.9999999924
0.226476476476476 	299.9999999999877 	3.581344359691649e-12 	101324.9999999923
0.2289789789789785 	299.9999999999913 	3.324729274180857e-12 	101324.9999999926
0.231481481481481 	299.9999999999762 	3.476303455304498e-12 	101324.9999999926
0.2339839839839835 	299.9999999999949 	3.639084542847647e-12 	101324.9999999925
0.236486486486486 	300.0000000000222 	2.657720832818775e-12 	101324.9999999924
0.2389889889889885 	300.000000000002 	4.273617561127298e-12 	101324.9999999921
0.241491491491491 	299.9999999999307 	2.687056992170613e-12 	101324.9999999921
0.2439939939939935 	299.9999999999779 	6.301586921404104e-12 	101324.999999992
0.246496496496496 	299.9999999999923 	4.10149234520532e-12 	101324.9999999921
0.2489989989989985 	300.000000000033 	5.245966316328464e-12 	101324.9999999924
0.251501501501501 	300.0000000000275 	3.104252272910869e-12 	101324.9999999924
0.2540040040040035 	299.9999999999893 	2.448233468382868e-12 	101324.9999999925
0.256506506506506 	300.0000000000198 	2.783869703630371e-12 	101324.9999999927
0.2590090090090086 	299.9999999999269 	1.295603152752135e-12 	101324.9999999928
0.261511511511511 	300.0000000000012 	4.299887968874973e-12 	101324.9999999927
0.2640140140140135 	299.9999999999955 	1.867362513554607e-12 	101324.9999999924
0.2665165165165161 	299.9999999999438 	3.599633942953735e-12 	101324.9999999923
0.2690190190190185 	300.000000000009 	2.222565468756651e-12 	101324.9999999923
0.271521521521521 	300.0000000000117 	2.575539817818981e-12 	101324.9999999921
0.2740240240240235 	300.0000000000151 	2.896031642623481e-12 	101324.9999999922
0.276526526526526 	300.0000000000081 	1.743075031477938e-12 	101324.9999999924
0.2790290290290286 	299.9999999999516 	3.004158253690488e-12 	101324.9999999926
0.281531531531531 	299.9999999999418 	1.369991905957018e-12 	101324.9999999926
0.2840340340340335 	299.9999999999833 	3.332166418042479e-12 	101324.9999999925
0.2865365365365361 	299.9999999999642 	1.559636959140189e-12 	101324.9999999924
0.2890390390390385 	299.999999999997 	2.805772862401852e-12 	101324.9999999923
0.291541541541541 	299.9999999999983 	1.604044109490684e-12 	101324.9999999923
0.2940440440440436 	299.9999999999959 	1.069776093649437e-12 	101324.9999999923
0.296546546546546 	299.9999999999927 	2.254293503565714e-12 	101324.9999999921
0.2990490490490486 	299.999999999947 	1.308818353695552e-12 	101324.9999999923
0.3015515515515511 	300.0000000000263 	3.53393975743361e-12 	101324.9999999923
0.3040540540540535 	300.0000000000051 	2.602150480344812e-12 	101324.9999999921
0.3065565565565562 	299.9999999999915 	3.65861932686238e-12 	101324.999999992
0.3090590590590585 	299.9999999999872 	1.903101927663808e-12 	101324.9999999918
0.3115615615615611 	299.9999999999478 	3.069585534634201e-12 	101324.9999999916
0.3140640640640635 	300.0000000000086 	7.914348480528312e-13 	101324.9999999913
0.316566566566566 	299.9999999999924 	3.330170010958905e-12 	101324.999999991
0.3190690690690687 	299.9999999999508 	1.8097378491863e-12 	101324.999999991
0.3215715715715711 	300.0000000000081 	4.010795862239418e-12 	101324.9999999909
0.3240740740740735 	299.9999999999946 	2.255497322795996e-12 	101324.9999999907
0.326576576576576 	299.9999999999201 	3.310675679996756e-12 	101324.9999999907
0.3290790790790786 	300.0000000000018 	1.667600808590623e-12 	101324.999999991
0.3315815815815811 	300.0000000000246 	1.857236065951811e-12 	101324.9999999911
0.3340840840840836 	299.9999999999911 	5.894331465181192e-13 	101324.999999991
0.3365865865865861 	300.0000000000447 	1.344741161695552e-12 	101324.9999999912
0.3390890890890886 	300.0000000000389 	1.023862654011845e-12 	101324.9999999915
0.3415915915915911 	299.9999999999953 	9.006815367615227e-13 	101324.9999999917
0.3440940940940935 	299.9999999999612 	1.529437111709714e-12 	101324.9999999916
0.3465965965965962 	300.0000000000272 	1.155818566689097e-12 	101324.9999999915
0.3490990990990985 	300.0000000000205 	7.395034769723381e-13 	101324.9999999916
0.3516016016016011 	299.9999999999895 	2.682980687906145e-13 	101324.9999999917
0.3541041041041035 	300.0000000000017 	2.611093486326815e-13 	101324.9999999916
0.3566066066066061 	299.9999999999604 	8.601923464570555e-13 	101324.9999999918
0.3591091091091085 	299.9999999999361 	7.495099656739865e-13 	101324.9999999919
0.3616116116116112 	299.9999999999502 	2.038122312892192e-12 	101324.9999999922
0.3641141141141137 	299.9999999999459 	1.13070683609948e-12 	101324.9999999924
0.3666166166166161 	299.9999999999415 	2.76190471629166e-12 	101324.9999999926
0.3691191191191185 	300.0000000000337 	2.904035539275403e-12 	101324.9999999925
0.371621621621621 	300.0000000000077 	1.874266306220302e-12 	101324.9999999924
0.3741241241241237 	300.0000000000442 	2.748708826350293e-12 	101324.9999999924
0.3766266266266261 	300.0000000000239 	4.018386763572875e-13 	101324.9999999923
0.3791291291291286 	299.9999999999857 	2.16332139998628e-12 	101324.9999999921
0.3816316316316311 	299.9999999999395 	1.138247308453675e-12 	101324.999999992
0.3841341341341336 	300.0000000000119 	1.766423942337536e-12 	101324.9999999918
0.3866366366366362 	299.9999999999999 	8.197014613597265e-13 	101324.9999999917
0.3891391391391387 	299.9999999999614 	9.864375249279957e-13 	101324.9999999915
0.391641641641641 	299.9999999999992 	7.985303099192021e-13 	101324.9999999912
0.3941441441441436 	300.0000000000061 	4.181129767892105e-13 	101324.9999999912
0.3966466466466462 	299.9999999999984 	1.294219888619128e-12 	101324.9999999913
0.3991491491491486 	299.9999999999575 	5.613756904005396e-13 	101324.9999999913
0.4016516516516512 	299.9999999999267 	1.448448076986234e-12 	101324.9999999914
0.4041541541541536 	299.9999999999549 	7.688349438070993e-13 	101324.9999999917
0.4066566566566561 	299.9999999999538 	1.462347493454957e-12 	101324.9999999917
0.4091591591591587 	299.9999999999916 	6.134570898701863e-13 	101324.9999999917
0.4116616616616612 	300.0000000000026 	1.176970393239114e-12 	101324.9999999918
0.4141641641641635 	300.0000000000364 	6.420101581502363e-13 	101324.999999992
0.4166666666666662 	299.9999999999961 	9.937390448717125e-13 	101324.9999999919
0.4191691691691687 	299.9999999999493 	1.9772677106905e-12 	101324.9999999921
0.421671671671671 	300.0000000000103 	1.65125589417947e-12 	101324.9999999919
0.4241741741741737 	299.9999999999845 	2.279161256069167e-12 	101324.9999999919
0.4266766766766761 	299.9999999999627 	3.228583994978771e-12 	101324.9999999916
0.4291791791791785 	300.0000000000153 	2.15719354324429e-12 	101324.9999999918
0.4316816816816812 	300.0000000000068 	4.026494695673903e-12 	101324.9999999919
0.4341841841841836 	299.9999999999851 	1.886283614531089e-12 	101324.9999999919
0.4366866866866862 	299.9999999999302 	2.57300186417008e-12 	101324.9999999917
0.4391891891891885 	299.9999999999864 	1.248380537922386e-12 	101324.9999999917
0.4416916916916913 	299.999999999983 	1.626693904125927e-12 	101324.9999999915
0.4441941941941936 	299.9999999999904 	8.258874772802365e-13 	101324.9999999912
0.4466966966966961 	299.9999999999344 	1.186608391159231e-12 	101324.9999999912
0.4491991991991987 	299.9999999999826 	7.282991687332652e-13 	101324.9999999913
0.4517017017017012 	299.9999999999818 	5.513190083675494e-13 	101324.9999999911
0.4542042042042035 	299.9999999999872 	5.729177212345137e-13 	101324.9999999911
0.4567067067067062 	299.9999999999971 	1.298949987930031e-13 	101324.9999999912
0.4592092092092087 	299.9999999999404 	3.184595762436823e-13 	101324.9999999913
0.4617117117117112 	300.0000000000156 	8.271060602808833e-13 	101324.9999999913
0.4642142142142137 	299.9999999999735 	1.000953096875284e-12 	101324.9999999914
0.4667167167167162 	299.9999999999965 	8.87022164817783e-13 	101324.9999999916
0.4692192192192187 	299.9999999999664 	8.266956590127344e-13 	101324.9999999916
0.4717217217217212 	300.0000000000068 	6.421044939702451e-13 	101324.9999999914
0.4742242242242236 	299.9999999999656 	9.661628531277911e-13 	101324.9999999917
0.4767267267267262 	299.9999999999781 	7.884089832147297e-13 	101324.999999992
0.4792292292292287 	300.0000000000174 	9.35307992966209e-13 	101324.9999999922
0.4817317317317312 	300.0000000000346 	1.389918180480725e-12 	101324.9999999922
0.4842342342342336 	299.999999999987 	1.381607083459066e-12 	101324.9999999921
0.4867367367367362 	299.9999999999637 	1.887267065603734e-12 	101324.9999999921
0.4892392392392387 	300.0000000000239 	1.427203030381633e-12 	101324.9999999921
0.4917417417417412 	300.0000000000051 	2.633895466005295e-12 	101324.999999992
0.4942442442442437 	299.9999999999289 	1.227490084795442e-12 	101324.9999999921
0.4967467467467462 	299.9999999999434 	2.241825492748078e-12 	101324.9999999921
0.4992492492492487 	299.9999999999378 	6.56550249092925e-13 	101324.9999999921
0.5017517517517511 	299.9999999999684 	1.750751363497338e-12 	101324.9999999923
0.5042542542542537 	299.9999999999699 	8.89074574085561e-13 	101324.9999999923
0.5067567567567562 	299.9999999999566 	1.1854287702647e-12 	101324.9999999921
0.5092592592592589 	299.9999999999736 	1.123124593062274e-12 	101324.9999999922
0.5117617617617611 	299.9999999999703 	8.691258499699806e-13 	101324.9999999922
0.5142642642642637 	299.9999999999927 	1.687929002396163e-12 	101324.9999999921
0.5167667667667663 	299.9999999999794 	2.458235072649597e-12 	101324.999999992
0.5192692692692688 	299.999999999935 	2.619832258550809e-12 	101324.999999992
0.5217717717717714 	299.9999999999552 	3.892887717385718e-12 	101324.999999992
0.5242742742742736 	299.9999999999548 	2.268608462457961e-12 	101324.999999992
0.5267767767767763 	299.9999999999699 	3.005252953362065e-12 	101324.9999999921
0.5292792792792789 	299.9999999999538 	1.732280357086421e-12 	101324.9999999923
0.5317817817817813 	299.9999999999275 	1.491195434223584e-12 	101324.9999999924
0.5342842842842837 	300.0000000000125 	1.091332168138823e-12 	101324.9999999925
0.5367867867867864 	300.0000000000016 	7.167138030333497e-13 	101324.9999999926
0.5392892892892888 	299.9999999999674 	1.020862020535925e-12 	101324.9999999927
0.5417917917917912 	300.000000000006 	4.74507445114861e-13 	101324.9999999929
0.5442942942942938 	299.9999999999901 	9.322280155207079e-13 	101324.9999999929
0.5467967967967964 	299.9999999999554 	3.290961729457313e-13 	101324.999999993
0.5492992992992988 	299.9999999999537 	7.454095966563015e-13 	101324.999999993
0.5518018018018012 	299.9999999999542 	6.591476563652519e-13 	101324.999999993
0.5543043043043039 	300.0000000000164 	8.089484521879852e-13 	101324.9999999928
0.5568068068068063 	299.9999999999925 	9.338914957371153e-13 	101324.9999999929
0.5593093093093087 	299.9999999999276 	1.160493700025256e-12 	101324.999999993
0.5618118118118114 	299.9999999999707 	1.035752238864384e-12 	101324.9999999928
0.5643143143143137 	299.9999999999574 	4.628077781304572e-13 	101324.9999999926
0.5668168168168163 	299.9999999999963 	4.839025045086262e-13 	101324.9999999926
0.5693193193193188 	300.0000000000251 	7.972295071624559e-13 	101324.9999999926
0.5718218218218213 	300.0000000000197 	1.731641990027935e-12 	101324.9999999927
0.5743243243243239 	300.0000000000059 	1.561665531301745e-12 	101324.9999999926
0.5768268268268262 	300.0000000000053 	2.91089488872914e-12 	101324.9999999928
0.5793293293293288 	299.9999999999562 	1.355188426532682e-12 	101324.9999999929
0.5818318318318314 	299.9999999999366 	3.943762284932347e-12 	101324.999999993
0.5843343343343338 	299.9999999999868 	1.845768636928989e-12 	101324.9999999929
0.5868368368368363 	299.9999999999812 	3.181266931751444e-12 	101324.9999999926
0.5893393393393387 	299.999999999958 	1.478536435355757e-12 	101324.9999999927
0.5918418418418413 	299.9999999999555 	1.975313046358577e-12 	101324.9999999926
0.5943443443443439 	300.0000000000133 	1.200533781618405e-12 	101324.9999999925
0.5968468468468463 	300.0000000000114 	1.489139227129328e-12 	101324.9999999924
0.5993493493493487 	300.0000000000297 	9.103924449281408e-13 	101324.9999999924
0.6018518518518514 	299.9999999999822 	1.172295395136402e-12 	101324.9999999924
0.6043543543543537 	299.999999999996 	5.404535172152023e-13 	101324.9999999926
0.6068568568568564 	299.9999999999865 	1.010246248460606e-12 	101324.9999999925
0.6093593593593587 	299.9999999999503 	5.662026390603724e-13 	101324.9999999925
0.6118618618618614 	299.9999999999432 	1.241515354321854e-12 	101324.9999999923
0.6143643643643638 	300.0000000000152 	1.157019950548628e-12 	101324.9999999926
0.6168668668668662 	299.9999999999891 	1.93490931864702e-12 	101324.9999999927
0.6193693693693688 	299.9999999999662 	1.117416958934951e-12 	101324.9999999928
0.6218718718718714 	299.9999999999752 	2.943381832037603e-12 	101324.9999999926
0.6243743743743737 	299.9999999999513 	1.384819555423325e-12 	101324.9999999925
0.6268768768768762 	299.999999999935 	3.037951517939331e-12 	101324.9999999925
0.629379379379379 	299.9999999999637 	1.989405158625757e-12 	101324.9999999925
0.6318818818818812 	299.9999999999823 	2.596647928828257e-12 	101324.9999999925
0.6343843843843838 	300.0000000000126 	2.19895125805852e-12 	101324.9999999927
0.6368868868868864 	299.9999999999854 	1.956096835848288e-12 	101324.9999999927
0.6393893893893888 	299.9999999999382 	3.300315015460785e-12 	101324.9999999929
0.6418918918918912 	300.000000000004 	2.043768838028325e-12 	101324.9999999929
0.6443943943943939 	299.9999999999897 	3.973471548422326e-12 	101324.9999999929
0.6468968968968963 	299.9999999999886 	3.166059122103048e-12 	101324.9999999928
0.6493993993993988 	299.9999999999837 	2.693085074718151e-12 	101324.9999999927
0.6519019019019012 	299.9999999999794 	2.433488660194398e-12 	101324.9999999928
0.6544044044044038 	299.9999999999232 	2.652096543146561e-12 	101324.999999993
0.6569069069069065 	299.9999999999619 	1.684859811866244e-12 	101324.9999999932
0.6594094094094087 	299.9999999999707 	2.295421454224577e-12 	101324.9999999933
0.6619119119119113 	299.9999999999611 	1.60800743396749e-12 	101324.9999999933
0.664414414414414 	300.0000000000043 	3.723112243118325e-12 	101324.9999999931
0.6669169169169162 	300.0000000000147 	3.138495084192992e-12 	101324.9999999932
0.6694194194194188 	299.9999999999885 	4.029780737708404e-12 	101324.9999999933
0.6719219219219214 	299.9999999999409 	2.743163685311817e-12 	101324.9999999932
0.674424424424424 	299.9999999999779 	2.98994624218907e-12 	101324.999999993
0.6769269269269262 	299.9999999999343 	1.516828608850553e-12 	101324.9999999929
0.679429429429429 	300.0000000000044 	1.465288945559477e-12 	101324.9999999929
0.6819319319319311 	299.999999999977 	7.064368977688432e-13 	101324.9999999931
0.6844344344344341 	299.9999999999862 	9.436750221117073e-13 	101324.9999999932
0.686936936936936 	299.999999999986 	1.215034431457439e-12 	101324.999999993
0.6894394394394392 	299.9999999999937 	8.170907083311066e-13 	101324.9999999931
0.6919419419419413 	299.9999999999862 	1.299686882022302e-12 	101324.9999999933
0.694444444444444 	299.9999999999489 	1.158496741132361e-12 	101324.9999999932
0.6969469469469463 	299.9999999999447 	7.972741991695946e-13 	101324.9999999933
0.6994494494494489 	299.9999999999377 	1.597490822761094e-12 	101324.9999999933
0.7019519519519515 	299.9999999999848 	1.256607852635357e-12 	101324.9999999932
0.7044544544544538 	299.9999999999595 	1.799363017395825e-12 	101324.9999999932
0.7069569569569564 	299.9999999999937 	1.857810772836991e-12 	101324.9999999933
0.7094594594594589 	299.9999999999702 	1.20760895027975e-12 	101324.9999999933
0.7119619619619615 	299.9999999999276 	1.990510066722958e-12 	101324.9999999933
0.7144644644644638 	299.9999999999611 	6.231011254962186e-13 	101324.9999999934
0.7169669669669665 	299.9999999999386 	9.157599120968037e-13 	101324.9999999933
0.7194694694694688 	299.999999999993 	4.021536585975786e-13 	101324.9999999933
0.7219719719719715 	299.9999999999909 	2.76353971517026e-13 	101324.9999999933
0.7244744744744737 	300.0000000000041 	1.212454227763735e-12 	101324.9999999935
0.7269769769769764 	299.9999999999974 	1.518757204464513e-12 	101324.9999999935
0.7294794794794791 	299.9999999999912 	8.915631588029641e-13 	101324.9999999935
0.7319819819819813 	299.9999999999847 	1.918624020306974e-12 	101324.9999999935
0.7344844844844839 	299.9999999999395 	1.064402880744368e-12 	101324.9999999935
0.7369869869869864 	299.9999999999633 	1.796036175914007e-12 	101324.9999999937
0.739489489489489 	299.9999999999538 	1.367096772731988e-12 	101324.9999999938
0.7419919919919914 	299.9999999999457 	1.024614354671428e-12 	101324.9999999939
0.7444944944944939 	299.9999999999833 	2.453054262703274e-12 	101324.9999999942
0.7469969969969963 	299.9999999999768 	1.937238596357656e-12 	101324.9999999943
0.7494994994994989 	299.9999999999526 	2.556471390818175e-12 	101324.9999999943
0.7520020020020015 	299.999999999976 	2.194973353100221e-12 	101324.9999999944
0.7545045045045039 	299.9999999999767 	2.12506509074401e-12 	101324.9999999943
0.7570070070070062 	299.9999999999563 	1.221547309713555e-12 	101324.9999999944
0.7595095095095092 	299.9999999999439 	2.223239691789933e-12 	101324.9999999945
0.7620120120120112 	300.0000000000021 	1.909304447355474e-12 	101324.9999999945
0.7645145145145138 	299.9999999999916 	2.017574598195761e-12 	101324.9999999944
0.7670170170170165 	299.9999999999482 	2.207782635421642e-12 	101324.9999999943
0.7695195195195191 	299.9999999999357 	1.44822007536153e-12 	101324.9999999943
0.7720220220220213 	299.9999999999429 	3.141958122345301e-12 	101324.9999999942
0.7745245245245239 	299.9999999999466 	1.859148932379893e-12 	101324.9999999942
0.7770270270270263 	299.9999999999782 	3.185331948103865e-12 	101324.9999999943
0.779529529529529 	299.9999999999865 	2.177314587743439e-12 	101324.9999999941
0.7820320320320313 	299.9999999999789 	2.899499871028694e-12 	101324.999999994
0.784534534534534 	299.9999999999973 	2.307574807953714e-12 	101324.9999999942
0.7870370370370364 	299.9999999999963 	1.780467171505322e-12 	101324.9999999943
0.7895395395395389 	299.999999999991 	2.493426412716368e-12 	101324.9999999944
0.7920420420420413 	299.9999999999789 	1.299925523001352e-12 	101324.9999999944
0.794544544544544 	299.9999999999736 	3.019786649857533e-12 	101324.9999999943
0.7970470470470463 	300.000000000002 	2.123372047865292e-12 	101324.9999999943
0.799549549549549 	299.9999999999883 	2.750265790058851e-12 	101324.9999999943
0.8020520520520515 	299.9999999999938 	1.581196911258425e-12 	101324.9999999943
0.8045545545545539 	299.999999999963 	1.221047316601957e-12 	101324.9999999943
0.8070570570570563 	299.999999999983 	2.800902319642108e-13 	101324.9999999944
0.8095595595595589 	299.999999999965 	7.74791810103739e-13 	101324.9999999943
0.8120620620620614 	299.9999999999513 	1.226037646562751e-12 	101324.9999999943
0.8145645645645638 	300.0000000000003 	1.588258804932143e-12 	101324.9999999944
0.8170670670670666 	299.9999999999944 	2.49551954309873e-12 	101324.9999999944
0.8195695695695689 	299.9999999999791 	1.763609742373693e-12 	101324.9999999944
0.8220720720720714 	299.9999999999575 	3.584143157447258e-12 	101324.9999999945
0.8245745745745739 	299.9999999999972 	1.965119366090504e-12 	101324.9999999944
0.8270770770770765 	299.9999999999782 	3.202570625682643e-12 	101324.9999999945
0.8295795795795788 	299.9999999999604 	2.019559182627204e-12 	101324.9999999945
0.8320820820820815 	300.0000000000131 	2.4917120688348e-12 	101324.9999999943
0.834584584584584 	300.0000000000061 	2.077286688393987e-12 	101324.9999999941
0.8370870870870865 	299.9999999999803 	2.525900410032419e-12 	101324.9999999942
0.8395895895895891 	299.9999999999482 	3.33420870016793e-12 	101324.9999999942
0.8420920920920915 	299.9999999999511 	2.987281192178742e-12 	101324.9999999941
0.844594594594594 	299.9999999999503 	3.738439820963149e-12 	101324.9999999943
0.8470970970970964 	299.9999999999665 	3.725584211158368e-12 	101324.9999999943
0.8495995995995991 	299.9999999999904 	3.773778042859751e-12 	101324.9999999943
0.8521021021021015 	299.9999999999861 	4.051649005326775e-12 	101324.9999999945
0.8546046046046039 	299.9999999999857 	3.660034051309849e-12 	101324.9999999944
0.8571071071071066 	300.000000000001 	4.51698618121533e-12 	101324.9999999945
0.8596096096096089 	299.9999999999719 	2.680952059544868e-12 	101324.9999999946
0.8621121121121116 	299.9999999999451 	4.289992251024834e-12 	101324.9999999947
0.8646146146146139 	299.999999999993 	2.143967434749272e-12 	101324.9999999946
0.8671171171171166 	299.9999999999802 	3.177851597904264e-12 	101324.9999999945
0.8696196196196189 	299.9999999999618 	2.589288314170673e-12 	101324.9999999944
0.8721221221221216 	299.9999999999819 	3.380850991834997e-12 	101324.9999999944
0.874624624624624 	299.9999999999995 	3.177021833239738e-12 	101324.9999999945
0.8771271271271264 	299.999999999999 	2.950100601568847e-12 	101324.9999999946
0.879629629629629 	300.0000000000076 	3.580049292994788e-12 	101324.9999999946
0.8821321321321317 	299.9999999999866 	2.343431499723808e-12 	101324.9999999948
0.8846346346346339 	299.999999999943 	4.592934124684823e-12 	101324.999999995
0.8871371371371364 	299.9999999999693 	3.092526427682031e-12 	101324.9999999949
0.8896396396396391 	299.999999999969 	4.991234082722338e-12 	101324.9999999948
0.8921421421421414 	299.9999999999712 	4.433418829462072e-12 	101324.9999999947
0.8946446446446441 	299.9999999999854 	5.555605405980138e-12 	101324.9999999947
0.8971471471471464 	299.9999999999983 	5.592362699108499e-12 	101324.9999999946
0.8996496496496489 	299.9999999999836 	5.527338207805731e-12 	101324.9999999945
0.9021521521521517 	299.9999999999735 	6.453835424696486e-12 	101324.9999999945
0.9046546546546541 	299.999999999995 	5.719204686644599e-12 	101324.9999999943
0.9071571571571564 	299.9999999999638 	6.35038685216377e-12 	101324.9999999943
0.9096596596596589 	299.9999999999612 	6.439185709648108e-12 	101324.9999999942
0.9121621621621616 	300.0000000000043 	6.941145229048438e-12 	101324.9999999944
0.9146646646646639 	299.9999999999844 	6.593231708520774e-12 	101324.9999999945
0.9171671671671666 	299.9999999999612 	6.053550733723707e-12 	101324.9999999945
0.9196696696696689 	299.9999999999987 	6.574103095248673e-12 	101324.9999999944
0.9221721721721714 	299.9999999999966 	5.053382696072877e-12 	101324.9999999944
0.9246746746746741 	299.999999999955 	7.023323743631439e-12 	101324.9999999945
0.9271771771771765 	299.9999999999626 	5.386527846632818e-12 	101324.9999999945
0.9296796796796791 	299.9999999999919 	7.363641055544864e-12 	101324.9999999944
0.9321821821821816 	299.9999999999747 	6.215202000193858e-12 	101324.9999999945
0.9346846846846838 	299.9999999999579 	7.032961244173416e-12 	101324.9999999947
0.9371871871871866 	300.0000000000059 	6.453665718590699e-12 	101324.999999995
0.9396896896896891 	300.0000000000068 	6.536711774941632e-12 	101324.9999999951
0.9421921921921914 	300.000000000003 	6.872434484085536e-12 	101324.9999999951
0.9446946946946939 	299.9999999999764 	6.226576657997432e-12 	101324.999999995
0.9471971971971965 	299.9999999999431 	8.231646807034374e-12 	101324.999999995
0.9496996996996991 	299.9999999999685 	6.944999134434668e-12 	101324.999999995
0.9522022022022016 	299.9999999999804 	8.537151145098422e-12 	101324.9999999949
0.9547047047047038 	299.999999999981 	7.774232620564345e-12 	101324.9999999947
0.9572072072072064 	299.9999999999719 	8.69551571023139e-12 	101324.9999999946
0.9597097097097093 	299.9999999999707 	8.703135774842541e-12 	101324.9999999945
0.9622122122122114 	299.9999999999695 	8.689448995298195e-12 	101324.9999999945
0.964714714714714 	299.9999999999671 	9.889833957239388e-12 	101324.9999999946
0.9672172172172167 	299.9999999999694 	9.470898942208764e-12 	101324.9999999947
0.969719719719719 	299.9999999999924 	9.880276634380073e-12 	101324.9999999947
0.9722222222222214 	299.9999999999836 	8.959505281726945e-12 	101324.999999995
0.9747247247247239 	299.9999999999787 	9.097207414686931e-12 	101324.9999999951
0.9772272272272267 	300 	9.065903973574974e-12 	101324.9999999949
0.9797297297297292 	299.9999999999882 	8.823511974659257e-12 	101324.9999999949
0.9822322322322313 	299.999999999993 	9.192528443917618e-12 	101324.9999999951
0.9847347347347344 	299.9999999999925 	7.536875306519611e-12 	101324.9999999952
0.9872372372372363 	299.9999999999595 	8.973170497354751e-12 	101324.9999999951
0.9897397397397389 	299.9999999999802 	7.186633605853523e-12 	101324.9999999953
0.9922422422422417 	299.9999999999691 	9.214255322036066e-12 	101324.9999999955
0.9947447447447441 	299.9999999999675 	8.429464406805433e-12 	101324.9999999955
0.9972472472472468 	299.9999999999784 	9.620513017411598e-12 	101324.9999999956
0.999749749749749 	299.9999999999718 	9.722474727624834e-12 	101324.9999999956
1.002252252252252 	299.9999999999766 	1.039000693718366e-11 	101324.9999999958
1.004754754754754 	299.9999999999898 	1.022457581937765e-11 	101324.9999999957
1.007257257257256 	299.9999999999719 	9.557797574582697e-12 	101324.9999999956
1.009759759759759 	299.9999999999661 	1.131732255710345e-11 	101324.9999999955
1.012262262262261 	299.9999999999693 	9.526863509036099e-12 	101324.9999999955
1.014764764764764 	299.9999999999479 	1.090595351415769e-11 	101324.9999999953
1.017267267267267 	299.9999999999408 	1.033754075123025e-11 	101324.9999999951
1.019769769769769 	299.9999999999751 	1.150599625132358e-11 	101324.9999999951
1.022272272272272 	299.9999999999836 	1.148918853818912e-11 	101324.9999999951
1.024774774774774 	299.9999999999839 	1.154152361701484e-11 	101324.9999999951
1.027277277277277 	299.99999999998 	1.24638037829356e-11 	101324.999999995
1.029779779779779 	300.0000000000002 	1.173333911308344e-11 	101324.9999999953
1.032282282282282 	300.0000000000006 	1.246885503575527e-11 	101324.9999999956
1.034784784784784 	299.9999999999932 	1.205756179246071e-11 	101324.9999999956
1.037287287287286 	299.9999999999685 	1.235922259390866e-11 	101324.9999999957
1.039789789789789 	299.9999999999758 	1.223270629966608e-11 	101324.9999999956
1.042292292292291 	300.0000000000025 	1.23665554521824e-11 	101324.9999999957
1.044794794794794 	300.000000000014 	1.203752850518989e-11 	101324.9999999959
1.047297297297296 	300.0000000000289 	1.060586494692469e-11 	101324.9999999961
1.049799799799799 	299.9999999999925 	1.199093206809833e-11 	101324.9999999961
1.052302302302302 	299.9999999999663 	1.022729419641786e-11 	101324.9999999962
1.054804804804804 	299.9999999999541 	1.176200766477027e-11 	101324.9999999963
1.057307307307306 	299.9999999999429 	1.090252577072142e-11 	101324.9999999964
1.059809809809809 	299.9999999999674 	1.148230717842235e-11 	101324.9999999963
1.062312312312312 	299.9999999999617 	1.041794478258787e-11 	101324.9999999962
1.064814814814814 	299.9999999999573 	1.10328904654385e-11 	101324.9999999963
1.067317317317317 	299.9999999999433 	1.123800028939785e-11 	101324.9999999964
1.069819819819819 	299.999999999945 	1.156500398248285e-11 	101324.9999999965
1.072322322322321 	299.9999999999911 	1.337483443997667e-11 	101324.9999999967
1.074824824824824 	300.0000000000049 	1.180296734873352e-11 	101324.9999999969
1.077327327327327 	300.0000000000215 	1.289346521058014e-11 	101324.9999999971
1.079829829829829 	300.0000000000325 	1.166223684185161e-11 	101324.9999999972
1.082332332332332 	300.0000000000027 	1.233215265432573e-11 	101324.9999999973
1.084834834834834 	299.9999999999837 	1.205623536253753e-11 	101324.9999999972
1.087337337337337 	299.9999999999577 	1.199127812813604e-11 	101324.9999999971
1.089839839839839 	299.9999999999491 	1.307375530791807e-11 	101324.999999997
1.092342342342342 	299.9999999999781 	1.174303874847016e-11 	101324.9999999971
1.094844844844844 	299.9999999999778 	1.240352268680888e-11 	101324.999999997
1.097347347347347 	299.9999999999554 	1.124829573380675e-11 	101324.9999999969
1.099849849849849 	299.9999999999442 	1.39119902969835e-11 	101324.9999999969
1.102352352352352 	299.9999999999625 	1.226629124655645e-11 	101324.999999997
1.104854854854854 	299.9999999999795 	1.401306071274267e-11 	101324.9999999971
1.107357357357357 	299.9999999999707 	1.256742874151466e-11 	101324.9999999971
1.109859859859859 	299.999999999965 	1.374655985362802e-11 	101324.9999999971
1.112362362362362 	300.000000000014 	1.226683997188049e-11 	101324.9999999973
1.114864864864865 	300.0000000000131 	1.1745596681811e-11 	101324.9999999976
1.117367367367367 	299.9999999999736 	1.249610577396484e-11 	101324.9999999976
1.119869869869869 	299.9999999999453 	1.165465556698307e-11 	101324.9999999978
1.122372372372372 	299.9999999999703 	1.31769792577855e-11 	101324.9999999977
1.124874874874874 	299.9999999999665 	1.224917557310278e-11 	101324.9999999976
1.127377377377377 	299.9999999999759 	1.323430720648473e-11 	101324.9999999975
1.129879879879879 	300.0000000000155 	1.305602439462048e-11 	101324.9999999976
1.132382382382382 	300.0000000000243 	1.369908191541466e-11 	101324.9999999976
1.134884884884884 	300.0000000000047 	1.341321030214315e-11 	101324.9999999974
1.137387387387387 	300.0000000000092 	1.343146348492809e-11 	101324.9999999972
1.139889889889889 	299.9999999999735 	1.430093309376775e-11 	101324.9999999971
1.142392392392392 	299.9999999999659 	1.284930355076638e-11 	101324.9999999973
1.144894894894894 	300.00000000001 	1.359025724441798e-11 	101324.9999999974
1.147397397397397 	299.9999999999969 	1.212020418254258e-11 	101324.9999999973
1.149899899899899 	299.9999999999554 	1.296686029308065e-11 	101324.9999999972
1.152402402402402 	299.999999999947 	1.259800452289099e-11 	101324.9999999974
1.154904904904904 	299.999999999972 	1.345013441424771e-11 	101324.9999999976
1.157407407407407 	299.9999999999719 	1.302564970453308e-11 	101324.9999999978
1.159909909909909 	299.9999999999477 	1.340877332642505e-11 	101324.999999998
1.162412412412412 	299.9999999999424 	1.545769993910624e-11 	101324.9999999979
1.164914914914914 	299.9999999999709 	1.470878294964002e-11 	101324.9999999979
1.167417417417417 	299.9999999999796 	1.585851007907799e-11 	101324.9999999978
1.169919919919919 	300.0000000000126 	1.421361906926316e-11 	101324.9999999977
1.172422422422422 	300.0000000000326 	1.474122934267109e-11 	101324.9999999976
1.174924924924925 	299.9999999999956 	1.3960325167702e-11 	101324.9999999976
1.177427427427427 	299.9999999999753 	1.477361272999044e-11 	101324.9999999976
1.179929929929929 	300.0000000000124 	1.550801925760664e-11 	101324.9999999976
1.182432432432432 	300.000000000033 	1.37630800867982e-11 	101324.9999999976
1.184934934934934 	300.0000000000046 	1.478687127468112e-11 	101324.9999999975
1.187437437437437 	299.9999999999762 	1.390361959966552e-11 	101324.9999999976
1.189939939939939 	299.9999999999682 	1.464569873840062e-11 	101324.9999999978
1.192442442442442 	299.9999999999493 	1.372010491293013e-11 	101324.999999998
1.194944944944944 	299.999999999952 	1.466065585053774e-11 	101324.9999999982
1.197447447447447 	299.9999999999944 	1.397521108021371e-11 	101324.9999999984
1.199949949949949 	300.0000000000093 	1.410224639736045e-11 	101324.9999999985
1.202452452452452 	299.9999999999697 	1.507005141582766e-11 	101324.9999999986
1.204954954954955 	299.9999999999648 	1.412317754022518e-11 	101324.9999999986
1.207457457457457 	299.9999999999841 	1.548127858525741e-11 	101324.9999999986
1.20995995995996 	299.9999999999812 	1.487309380293906e-11 	101324.9999999985
1.212462462462462 	299.9999999999897 	1.577404768597614e-11 	101324.9999999985
1.214964964964964 	299.9999999999906 	1.483806700523005e-11 	101324.9999999986
1.217467467467467 	299.9999999999974 	1.586037949379281e-11 	101324.9999999987
1.219969969969969 	299.9999999999786 	1.5066235017631e-11 	101324.9999999986
1.222472472472472 	300.0000000000041 	1.536608613248465e-11 	101324.9999999987
1.224974974974975 	300.0000000000327 	1.584840953582417e-11 	101324.9999999987
1.227477477477477 	299.9999999999959 	1.450937984518945e-11 	101324.9999999987
1.229979979979979 	299.9999999999868 	1.559661971828764e-11 	101324.9999999988
1.232482482482482 	299.9999999999668 	1.444432331973979e-11 	101324.9999999987
1.234984984984984 	299.9999999999661 	1.595326413477128e-11 	101324.9999999987
1.237487487487487 	299.999999999986 	1.495516611975156e-11 	101324.9999999989
1.239989989989989 	299.9999999999894 	1.579533860393491e-11 	101324.999999999
1.242492492492492 	300.000000000014 	1.633276190865417e-11 	101324.9999999992
1.244994994994994 	299.9999999999874 	1.521363890510983e-11 	101324.9999999992
1.247497497497497 	299.9999999999887 	1.642998677635954e-11 	101324.9999999991
1.249999999999999 	300.0000000001878 	1.569405205203558e-11 	101324.9999999991
