-1.25 	270.610737385374 	0.001525344445959991 	101325.0062831853
-1.247497497497497 	300.1676391810177 	0.001399029851370184 	101324.99476801
-1.244994994994995 	300.0007878429161 	0.001147274364397743 	101325.004997086
-1.242492492492492 	299.9999976385463 	0.000905438112106065 	101324.9950123916
-1.23998998998999 	300.0000036797264 	0.0006843333315107992 	101325.0043716721
-1.237487487487487 	299.9999964631296 	0.000482053891302767 	101324.9958016206
-1.234984984984985 	300.0000033807415 	0.0002985565210732667 	101325.0040117129
-1.232482482482482 	299.9999969898944 	0.0001341296737315072 	101324.996423773
-1.22997997997998 	300.0000028695523 	6.963380146862729e-05 	101325.0034058214
-1.227477477477477 	299.9999972513004 	0.0001441427273248052 	101324.9967354568
-1.224974974974975 	300.0000023931643 	0.0002595212888456077 	101325.0028417175
-1.222472472472472 	299.9999976286558 	0.0003587329932336599 	101324.9971886677
-1.21996996996997 	300.0000019313433 	0.0004459908793377648 	101325.0022981378
-1.217467467467467 	299.9999974303677 	0.000518465272309179 	101324.9969527679
-1.214964964964965 	300.0000008885885 	0.0005794183452460837 	101325.0010607545
-1.212462462462462 	299.999997012669 	0.0006297656139680574 	101324.9964561989
-1.20995995995996 	300.0000003587315 	0.0006697136766430742 	101325.0004334521
-1.207457457457457 	299.999997423632 	0.0006998903150298981 	101324.9969471133
-1.204954954954955 	300.0000007995785 	0.0007216954085308175 	101325.0009588845
-1.202452452452452 	299.9999976485591 	0.0007350933347548167 	101324.9972109077
-1.19994994994995 	300.0000003680691 	0.0007429992056065866 	101325.0004431814
-1.197447447447447 	299.9999978712714 	0.0007445831246415729 	101324.9974709629
-1.194944944944945 	300.0000002430919 	0.0007407578779219193 	101325.0002942757
-1.192442442442442 	299.9999977802541 	0.0007310684037308128 	101324.9973668071
-1.18993993993994 	299.9999996812438 	0.0007195336995467489 	101324.999636527
-1.187437437437437 	299.9999972803393 	0.0007021042175263065 	101324.9967808934
-1.184934934934935 	299.9999990981336 	0.0006846454939165796 	101324.9989467053
-1.182432432432432 	299.9999969728302 	0.0006629294755859092 	101324.9964136402
-1.17992992992993 	299.9999989922158 	0.0006403962326616121 	101324.9988164608
-1.177427427427427 	299.9999973104886 	0.0006160613511645967 	101324.9968102093
-1.174924924924925 	299.9999993424279 	0.000590669634533997 	101324.9992294719
-1.172422422422422 	299.9999976988987 	0.0005640825406012864 	101324.9972701743
-1.16991991991992 	299.9999993007391 	0.0005382540760368649 	101324.9991805554
-1.167417417417417 	299.9999974354548 	0.0005102853978144768 	101324.9969635918
-1.164914914914915 	299.999998766412 	0.000484818571649576 	101324.9985488008
-1.162412412412412 	299.9999970854938 	0.0004570915636283448 	101324.9965473299
-1.15990990990991 	299.9999985154989 	0.0004321382966433418 	101324.9982513557
-1.157407407407407 	299.9999971096993 	0.0004056501210250152 	101324.9965774112
-1.154904904904904 	299.9999984149784 	0.0003820364755490705 	101324.9981320185
-1.152402402402403 	299.9999969577313 	0.000356689901199873 	101324.9963993552
-1.1498998998999 	299.9999979865622 	0.0003354226149186024 	101324.9976263325
-1.147397397397397 	299.9999966692656 	0.0003116159096540118 	101324.9960606597
-1.144894894894895 	299.9999978424503 	0.0002919600081821104 	101324.9974543073
-1.142392392392392 	299.9999969059634 	0.0002710716976831479 	101324.9963371186
-1.13988988988989 	299.9999982298705 	0.0002520617392490647 	101324.9979084149
-1.137387387387387 	299.9999974089596 	0.0002336003039653403 	101324.9969325043
-1.134884884884885 	299.9999984178071 	0.0002182015293618287 	101324.9981291895
-1.132382382382382 	299.9999971372401 	0.0001992412489090761 	101324.9966121848
-1.12987987987988 	299.9999974375012 	0.0001850278209338898 	101324.9969755333
-1.127377377377377 	299.9999967055392 	0.0001669615423488292 	101324.9961055398
-1.124874874874875 	299.9999971906432 	0.00015397091025511 	101324.9966814438
-1.122372372372372 	299.9999966054249 	0.0001379916834002022 	101324.9959870238
-1.11986986986987 	299.9999971978665 	0.0001264994929346073 	101324.9966879629
-1.117367367367367 	299.9999966223284 	0.0001121882217942189 	101324.9960059586
-1.114864864864865 	299.9999973173785 	0.0001018022302444051 	101324.9968284308
-1.112362362362362 	299.9999969527851 	8.869709443486499e-05 	101324.9963973225
-1.10985985985986 	299.9999972855688 	7.946219623998638e-05 	101324.9967921679
-1.107357357357357 	299.9999970033334 	6.695905242726318e-05 	101324.996458079
-1.104854854854855 	299.9999970877552 	5.930081029603454e-05 	101324.9965569759
-1.102352352352353 	299.999996957838 	4.801108198695771e-05 	101324.9964023957
-1.09984984984985 	299.9999969120236 	4.200831231168926e-05 	101324.9963477024
-1.097347347347347 	299.9999968561295 	3.21912497892773e-05 	101324.9962818897
-1.094844844844845 	299.9999967434212 	2.814790165519913e-05 	101324.9961487555
-1.092342342342342 	299.9999966976527 	1.982312135957459e-05 	101324.9960957621
-1.08983983983984 	299.9999966037094 	1.755768436787887e-05 	101324.9959859539
-1.087337337337337 	299.9999966234869 	1.085082869457917e-05 	101324.9960097374
-1.084834834834835 	299.9999966524647 	9.809523335364004e-06 	101324.996043183
-1.082332332332332 	299.9999967780421 	9.81957460789318e-06 	101324.9961911048
-1.07982982982983 	299.999996843814 	8.655873490595617e-06 	101324.99626777
-1.077327327327327 	299.9999969268426 	9.320684330593198e-06 	101324.9963653124
-1.074824824824825 	299.9999969028424 	8.709458009939434e-06 	101324.9963367981
-1.072322322322323 	299.9999968532834 	9.296979145488304e-06 	101324.9962786636
-1.06981981981982 	299.9999967566932 	9.338050173148438e-06 	101324.996164983
-1.067317317317317 	299.9999966573776 	9.698459251457148e-06 	101324.9960479028
-1.064814814814815 	299.999996578475 	9.89531770186356e-06 	101324.9959547133
-1.062312312312312 	299.9999965382117 	1.001540678267129e-05 	101324.9959071602
-1.05980980980981 	299.99999654029 	1.001054853730106e-05 	101324.9959097422
-1.057307307307307 	299.9999965777865 	9.906223072569041e-06 	101324.9959541582
-1.054804804804805 	299.9999966387882 	9.734441955920883e-06 	101324.9960260696
-1.052302302302302 	299.9999967106077 	9.531121737811405e-06 	101324.9961106761
-1.0497997997998 	299.9999967816808 	9.329073825276706e-06 	101324.9961946309
-1.047297297297297 	299.9999968416005 	9.158560305187543e-06 	101324.9962656466
-1.044794794794795 	299.9999968809262 	9.046853122535306e-06 	101324.9963124324
-1.042292292292292 	299.9999968922669 	9.015290067408809e-06 	101324.9963259131
-1.03978978978979 	299.9999968722668 	9.07235621909172e-06 	101324.9963021078
-1.037287287287287 	299.9999968249049 	9.205319663641107e-06 	101324.9962459418
-1.034784784784785 	299.9999967631102 	9.377307380757962e-06 	101324.9961728624
-1.032282282282283 	299.9999967063346 	9.533621837094266e-06 	101324.996105914
-1.02977977977978 	299.9999966758099 	9.615367106034921e-06 	101324.9960699639
-1.027277277277277 	299.9999966883651 	9.576343017849926e-06 	101324.996084769
-1.024774774774775 	299.9999967507181 	9.398618998881619e-06 	101324.996158164
-1.022272272272272 	299.9999968560677 	9.100633208716627e-06 	101324.9962824623
-1.01976976976977 	299.9999969859801 	8.732651954697999e-06 	101324.9964362358
-1.017267267267267 	299.9999971166232 	8.36134321593129e-06 	101324.9965912297
-1.014764764764765 	299.9999972259429 	8.050092862519345e-06 	101324.9967207697
-1.012262262262262 	299.9999972982033 	7.84410331754953e-06 	101324.9968058941
-1.00975975975976 	299.9999973266913 	7.762322837410891e-06 	101324.9968388708
-1.007257257257257 	299.9999973144068 	7.794702952864968e-06 	101324.9968238945
-1.004754754754755 	299.9999972729553 	7.907785428722807e-06 	101324.99677521
-1.002252252252252 	299.9999972194774 	8.053816661218489e-06 	101324.9967130254
-0.9997497497497498 	299.9999971722875 	8.183313060071054e-06 	101324.9966580405
-0.9972472472472473 	299.9999971459522 	8.257469179709975e-06 	101324.996626608
-0.9947447447447449 	299.9999971482741 	8.253252471353288e-06 	101324.9966281027
-0.9922422422422421 	299.9999971799903 	8.16545102503913e-06 	101324.9966643434
-0.9897397397397399 	299.9999972365609 	8.003656304407618e-06 	101324.9967311792
-0.9872372372372376 	299.9999973117432 	7.785304071175427e-06 	101324.9968212929
-0.9847347347347346 	299.9999973993461 	7.530527044070698e-06 	101324.996926356
-0.9822322322322323 	299.9999974933233 	7.259877459496467e-06 	101324.9970378615
-0.9797297297297296 	299.9999975870672 	6.992657439133028e-06 	101324.9971476575
-0.9772272272272275 	299.9999976750084 	6.742233490079551e-06 	101324.9972499812
-0.9747247247247248 	299.9999977548516 	6.513049196889144e-06 	101324.9973433343
-0.9722222222222224 	299.9999978262304 	6.305575973864555e-06 	101324.9974281022
-0.9697197197197196 	299.9999978883004 	6.122671304452138e-06 	101324.9975028401
-0.9672172172172175 	299.999997941227 	5.964041401279994e-06 	101324.9975669201
-0.9647147147147147 	299.9999979904539 	5.816718624098681e-06 	101324.9976259055
-0.9622122122122124 	299.9999980440624 	5.660677462515057e-06 	101324.9976890801
-0.9597097097097099 	299.9999981060793 	5.483835388544074e-06 	101324.9977614681
-0.9572072072072073 	299.9999981751942 	5.286948146305113e-06 	101324.9978420421
-0.9547047047047047 	299.9999982495373 	5.073963307327673e-06 	101324.9979289124
-0.9522022022022023 	299.9999983283959 	4.847023892273736e-06 	101324.9980216111
-0.9496996996996998 	299.9999984097436 	4.613215717315557e-06 	101324.9981176294
-0.9471971971971973 	299.9999984884 	4.387198050950065e-06 	101324.9982105748
-0.9446946946946947 	299.9999985588941 	4.183039632420079e-06 	101324.9982939555
-0.9421921921921923 	299.9999986205937 	4.002269742295756e-06 	101324.9983667634
-0.93968968968969 	299.9999986790162 	3.829787075208004e-06 	101324.9984356212
-0.9371871871871872 	299.9999987432491 	3.641422145915222e-06 	101324.9985114456
-0.9346846846846848 	299.9999988199615 	3.419140687329638e-06 	101324.9986022409
-0.9321821821821823 	299.9999989089008 	3.163461035382752e-06 	101324.9987076356
-0.9296796796796799 	299.9999990035353 	2.891514186792724e-06 	101324.9988198078
-0.9271771771771771 	299.9999990965518 	2.622269692578091e-06 	101324.9989301426
-0.9246746746746748 	299.9999991848854 	2.366060026223661e-06 	101324.9990348482
-0.9221721721721724 	299.9999992684579 	2.124698718937679e-06 	101324.9991338174
-0.9196696696696698 	299.9999993474987 	1.894679256341734e-06 	101324.9992274219
-0.9171671671671672 	299.9999994241901 	1.671214433383721e-06 	101324.9993181852
-0.9146646646646649 	299.9999995026639 	1.443441125606498e-06 	101324.9994108683
-0.9121621621621623 	299.9999995861324 	1.201031089877467e-06 	101324.9995094325
-0.9096596596596597 	299.9999996749939 	9.441066069900441e-07 	101324.999614509
-0.9071571571571573 	299.9999997676614 	6.76238862846152e-07 	101324.9997240564
-0.9046546546546547 	299.9999998624813 	4.004647888626391e-07 	101324.9998362237
-0.9021521521521524 	299.9999999605678 	1.15903271470831e-07 	101324.9999523761
-0.8996496496496498 	300.0000000623102 	1.867743984505031e-07 	101325.0000727507
-0.8971471471471473 	300.000000164878 	4.734961407968299e-07 	101325.0001940546
-0.894644644644645 	300.0000002632258 	7.575868974425776e-07 	101325.0003104193
-0.892142142142142 	300.0000003551004 	1.025091902299836e-06 	101325.0004191945
-0.8896396396396397 	300.0000004431888 	1.282118404601081e-06 	101325.0005234791
-0.8871371371371374 	300.0000005310961 	1.537669641355515e-06 	101325.0006275674
-0.8846346346346349 	300.0000006200142 	1.795137212897275e-06 	101325.000732678
-0.8821321321321324 	300.0000007094777 	2.054701454375682e-06 	101325.0008383615
-0.8796296296296297 	300.0000008010026 	2.321220785773556e-06 	101325.0009465542
-0.8771271271271271 	300.0000008984194 	2.604210902966433e-06 	101325.0010617991
-0.8746246246246248 	300.0000010037165 	2.907800542998884e-06 	101325.0011863097
-0.8721221221221224 	300.0000011133175 	3.222563096354437e-06 	101325.0013158436
-0.8696196196196196 	300.0000012205053 	3.531495680032504e-06 	101325.0014424778
-0.8671171171171175 	300.0000013215096 	3.824829904823751e-06 	101325.0015617964
-0.8646146146146148 	300.0000014181358 	4.10697515543101e-06 	101325.0016761749
-0.8621121121121121 	300.0000015148881 	4.388415734812288e-06 	101325.0017907079
-0.8596096096096097 	300.0000016134733 	4.673494466650062e-06 	101325.0019072889
-0.857107107107107 	300.0000017119469 	4.958000448599614e-06 	101325.0020236376
-0.8546046046046049 	300.0000018084335 	5.237618738560739e-06 	101325.0021374797
-0.8521021021021022 	300.0000019042062 	5.516354821729841e-06 	101325.0022506031
-0.8495995995995997 	300.0000020033327 	5.804518832997039e-06 	101325.0023679713
-0.8470970970970974 	300.0000021081435 	6.107238435533344e-06 	101325.0024922415
-0.8445945945945946 	300.0000022157628 	6.416121286558693e-06 	101325.00261958
-0.8420920920920922 	300.0000023198854 	6.715330188065218e-06 	101325.0027424323
-0.8395895895895897 	300.0000024172679 	6.997583012359778e-06 	101325.0028572165
-0.8370870870870872 	300.0000025115548 	7.272469343189406e-06 	101325.0029684197
-0.8345845845845846 	300.0000026094597 	7.557357908243151e-06 	101325.003084172
-0.8320820820820823 	300.0000027141197 	7.860500507428189e-06 	101325.0032082518
-0.8295795795795798 	300.0000028225749 	8.173914707332515e-06 	101325.0033368922
-0.8270770770770772 	300.000002928747 	8.481104037437867e-06 	101325.0034625913
-0.8245745745745746 	300.0000030283035 	8.770485384373193e-06 	101325.00358027
-0.8220720720720721 	300.0000031218208 	9.042967229170798e-06 	101325.0036905506
-0.8195695695695699 	300.0000032132399 	9.308985469304096e-06 	101325.0037983194
-0.817067067067067 	300.0000033062589 	9.578684092047524e-06 	101325.0039081846
-0.8145645645645651 	300.0000034015382 	9.854289416982266e-06 	101325.0040208832
-0.8120620620620621 	300.0000034975624 	1.013275815213208e-05 	101325.0041344837
-0.8095595595595597 	300.0000035945466 	1.041568287606858e-05 	101325.0042493497
-0.8070570570570572 	300.0000036965184 	1.071283274802469e-05 	101325.0043702033
-0.8045545545545546 	300.0000038067534 	1.103030715551437e-05 	101325.0045005819
-0.8020520520520523 	300.0000039207453 	1.135497097735113e-05 	101325.0046349864
-0.7995495495495494 	300.0000040268128 	1.165755165092358e-05 	101325.0047598253
-0.7970470470470474 	300.0000041164349 	1.191783759785835e-05 	101325.0048654029
-0.7945445445445446 	300.0000041935755 	1.214653246144272e-05 	101325.0049566531
-0.7920420420420423 	300.0000042712321 	1.237651725526922e-05 	101325.0050491275
-0.7895395395395397 	300.0000043587692 	1.263133643935025e-05 	101325.0051536476
-0.7870370370370371 	300.0000044541375 	1.290601855603041e-05 	101325.0052671923
-0.7845345345345348 	300.0000045493593 	1.318055692659382e-05 	101325.0053797791
-0.7820320320320323 	300.0000046411835 	1.344595298509347e-05 	101325.0054873588
-0.7795295295295296 	300.0000047332013 	1.37108346580618e-05 	101325.0055947087
-0.7770270270270272 	300.000004828962 	1.398433567005821e-05 	101325.0057066547
-0.7745245245245247 	300.0000049256328 	1.42609564296831e-05 	101325.0058205406
-0.7720220220220222 	300.0000050171326 	1.452618902184328e-05 	101325.0059292809
-0.7695195195195199 	300.0000051011203 	1.477348299028054e-05 	101325.0060297661
-0.767017017017017 	300.0000051813104 	1.501011639942578e-05 	101325.0061256506
-0.7645145145145147 	300.0000052623557 	1.524669018930131e-05 	101325.0062220428
-0.7620120120120122 	300.0000053446798 	1.548487127431731e-05 	101325.0063196093
-0.7595095095095097 	300.0000054249937 	1.571801576858103e-05 	101325.0064149805
-0.7570070070070072 	300.000005501379 	1.594196170376299e-05 	101325.0065060451
-0.7545045045045048 	300.0000055761325 	1.616260508496662e-05 	101325.0065954868
-0.7520020020020022 	300.0000056538795 	1.639079273851626e-05 	101325.0066884653
-0.7494994994994997 	300.0000057367721 	1.663015781891768e-05 	101325.0067867893
-0.7469969969969972 	300.000005821161 	1.687070113785822e-05 	101325.0068858521
-0.7444944944944945 	300.0000059006379 	1.709723901947943e-05 	101325.0069784368
-0.7419919919919924 	300.0000059731103 	1.730584232416364e-05 	101325.0070625491
-0.7394894894894897 	300.0000060436675 	1.751057789099398e-05 	101325.0071448718
-0.7369869869869872 	300.0000061196579 	1.772923464102234e-05 	101325.0072342179
-0.7344844844844846 	300.0000062006673 	1.795988369017289e-05 	101325.0073302149
-0.7319819819819822 	300.0000062761803 	1.817507644967802e-05 	101325.0074200747
-0.7294794794794797 	300.0000063345104 	1.834626767791477e-05 	101325.0074898955
-0.7269769769769773 	300.000006376899 	1.84773981348507e-05 	101325.0075408199
-0.7244744744744747 	300.0000064196857 	1.860985862356875e-05 	101325.0075919686
-0.721971971971972 	300.0000064804919 	1.878718054904689e-05 	101325.0076639253
-0.7194694694694695 	300.0000065610133 	1.901230656647801e-05 	101325.0077582687
-0.7169669669669674 	300.0000066444535 	1.924367937833193e-05 	101325.0078553726
-0.7144644644644647 	300.0000067132002 	1.943780579265608e-05 	101325.007934574
-0.711961961961962 	300.0000067666639 	1.95945277968547e-05 	101325.0079959189
-0.7094594594594597 	300.0000068211062 	1.975463846937973e-05 	101325.0080592764
-0.7069569569569573 	300.0000068896168 	1.994951829112059e-05 	101325.0081403264
-0.7044544544544545 	300.0000069639862 	2.015698742922235e-05 	101325.0082291741
-0.7019519519519523 	300.0000070198179 	2.031530731175103e-05 	101325.0082965126
-0.6994494494494495 	300.0000070420184 	2.038784400284912e-05 	101325.008323997
-0.6969469469469471 	300.0000070455477 	2.041404970222118e-05 	101325.008328857
-0.6944444444444446 	300.0000070672727 	2.048881970438341e-05 	101325.00835489
-0.6919419419419421 	300.0000071342588 	2.068011967377823e-05 	101325.0084343317
-0.6894394394394396 	300.0000072356079 	2.095880228182958e-05 	101325.0085547554
-0.6869369369369374 	300.0000073273844 	2.121042682898376e-05 	101325.0086639736
-0.6844344344344344 	300.0000073674424 	2.132669443140359e-05 	101325.0087119721
-0.6819319319319321 	300.0000073525586 	2.130012866955969e-05 	101325.0086946925
-0.6794294294294296 	300.0000073241887 	2.123763973211561e-05 	101325.0086608409
-0.6769269269269272 	300.000007335232 	2.12761685039075e-05 	101325.0086731588
-0.6744244244244245 	300.0000074064588 	2.146906142986245e-05 	101325.0087564174
-0.6719219219219222 	300.0000075075179 	2.173834800329257e-05 	101325.0088752687
-0.6694194194194195 	300.0000075806467 	2.193411597252518e-05 	101325.0089614348
-0.6669169169169172 	300.0000075861144 	2.19541029790875e-05 	101325.0089680192
-0.6644144144144146 	300.0000075352355 	2.182857671660001e-05 	101325.0089082957
-0.661911911911912 	300.0000074839088 	2.170303504647202e-05 	101325.0088479907
-0.6594094094094097 	300.0000074910576 	2.173136406440768e-05 	101325.0088566899
-0.656906906906907 	300.0000075749358 	2.196078151578962e-05 	101325.0089560344
-0.6544044044044046 	300.0000076985975 	2.229365592927664e-05 	101325.0091022393
-0.6519019019019021 	300.0000077951693 	2.255360580271946e-05 	101325.0092162337
-0.6493993993993996 	300.0000078138965 	2.260671313910411e-05 	101325.0092380107
-0.6468968968968971 	300.0000077546079 	2.24529324806772e-05 	101325.0091674307
-0.6443943943943946 	300.0000076679649 	2.22260766531646e-05 	101325.0090644451
-0.6418918918918921 	300.0000076211572 	2.210419592156163e-05 	101325.0090084722
-0.6393893893893897 	300.0000076538048 	2.219276143987484e-05 	101325.0090465607
-0.6368868868868871 	300.0000077525899 	2.245656920618567e-05 	101325.0091631569
-0.6343843843843846 	300.0000078595303 	2.274112984076727e-05 	101325.009289733
-0.6318818818818821 	300.0000079074828 	2.286708046763408e-05 	101325.0093469681
-0.6293793793793795 	300.0000078604466 	2.273813803806506e-05 	101325.0092919804
-0.6268768768768773 	300.00000773565 	2.240159624238603e-05 	101325.009145103
-0.6243743743743745 	300.0000075966066 	2.202826514872738e-05 	101325.0089810557
-0.6218718718718721 	300.0000075194116 	2.182479431072054e-05 	101325.0088899787
-0.6193693693693696 	300.0000075547537 	2.192848723935647e-05 	101325.0089320502
-0.6168668668668671 	300.0000077022917 	2.233565898732044e-05 	101325.0091063401
-0.6143643643643645 	300.0000079068615 	2.289616595892077e-05 	101325.0093479555
-0.6118618618618621 	300.0000080830389 	2.337612184233114e-05 	101325.0095561362
-0.6093593593593596 	300.0000081507645 	2.355474239568255e-05 	101325.0096361198
-0.6068568568568571 	300.0000080661609 	2.331230141415241e-05 	101325.009536093
-0.6043543543543546 	300.0000078399746 	2.267982262342448e-05 	101325.0092687208
-0.6018518518518521 	300.0000075356955 	2.183239120476502e-05 	101325.0089089194
-0.5993493493493496 	300.0000072463357 	2.102798901036549e-05 	101325.0085667269
-0.5968468468468471 	300.0000070633465 	2.052233055305805e-05 	101325.0083502046
-0.5943443443443446 	300.0000070506427 	2.049411269688469e-05 	101325.0083349463
-0.591841841841842 	300.0000072273247 	2.099572412312874e-05 	101325.0085436975
-0.5893393393393397 	300.0000075615258 	2.19372073589066e-05 	101325.0089387456
-0.5868368368368371 	300.0000079787492 	2.311096403591145e-05 	101325.0094319583
-0.5843343343343346 	300.000008383653 	2.425009150177969e-05 	101325.00991076
-0.5818318318318321 	300.0000086841161 	2.509312098690232e-05 	101325.0102661825
-0.5793293293293297 	300.0000088072553 	2.543239692521452e-05 	101325.0104121322
-0.5768268268268271 	300.0000087092483 	2.514214025681737e-05 	101325.0102965869
-0.5743243243243245 	300.0000083786658 	2.418930717197572e-05 	101325.0099060645
-0.5718218218218221 	300.0000078350027 	2.262861305402533e-05 	101325.0092636193
-0.5693193193193196 	300.0000071223293 	2.05842077238725e-05 	101325.0084212338
-0.5668168168168171 	300.0000062992164 	1.822212196269803e-05 	101325.007448319
-0.5643143143143147 	300.0000054282493 	1.571935785582352e-05 	101325.0064187207
-0.5618118118118121 	300.0000045657582 	1.323605953530268e-05 	101325.0053989201
-0.5593093093093094 	300.0000037548293 	1.08969062547901e-05 	101325.0044400918
-0.5568068068068072 	300.0000030238518 	8.784840030572213e-06 	101325.0035758093
-0.5543043043043046 	300.0000023878535 	6.944292703587905e-06 	101325.0028237826
-0.551801801801802 	300.0000018510307 	5.388730919499103e-06 	101325.0021890834
-0.5492992992992995 	300.0000014101261 	4.109094695382017e-06 	101325.0016676467
-0.5467967967967969 	300.0000010565621 	3.081715874892718e-06 	101325.0012495126
-0.5442942942942947 	300.0000007792185 	2.27492156060624e-06 	101325.0009215369
-0.5417917917917919 	300.0000005660098 	1.654146104110711e-06 	101325.00066946
-0.5392892892892895 	300.0000004052247 	1.185459499770044e-06 	101325.0004793464
-0.536786786786787 	300.0000002861438 	8.378309743891895e-07 	101325.0003384808
-0.5342842842842846 	300.0000001993524 	5.842547709576935e-07 	101325.0002358319
-0.531781781781782 	300.0000001370676 	4.021973381770022e-07 	101325.0001622033
-0.5292792792792794 	300.0000000930743 	2.734262153883877e-07 	101325.0001101774
-0.526776776776777 	300.0000000624152 	1.83656388168741e-07 	101325.0000739388
-0.5242742742742745 	300.0000000414387 	1.219136248678921e-07 	101325.0000490405
-0.521771771771772 	300.0000000272124 	8.002235736852805e-08 	101325.0000321577
-0.5192692692692695 	300.0000000175961 	5.193814575122533e-08 	101325.0000208542
-0.516766766766767 	300.0000000113267 	3.336037058353138e-08 	101325.0000133779
-0.5142642642642645 	300.0000000071599 	2.119510800411087e-08 	101325.0000084914
-0.511761761761762 	300.0000000044636 	1.333872878958072e-08 	101325.0000053337
-0.5092592592592596 	300.0000000027783 	8.303654164908712e-09 	101325.0000033159
-0.506756756756757 	300.0000000016614 	5.127092466334627e-09 	101325.0000020402
-0.5042542542542544 	300.0000000010466 	3.129860345876833e-09 	101325.000001242
-0.5017517517517521 	300.0000000006672 	1.899431574329298e-09 	101325.0000007473
-0.4992492492492494 	300.000000000414 	1.138097311682675e-09 	101325.0000004441
-0.496746746746747 	300.0000000002077 	6.808756020996268e-10 	101325.00000026
-0.4942442442442445 	300.0000000000775 	4.005972438955132e-10 	101325.0000001492
-0.4917417417417421 	300.0000000000069 	2.375459043058576e-10 	101325.0000000831
-0.4892392392392395 	299.9999999999947 	1.369118463988671e-10 	101325.0000000441
-0.486736736736737 	299.9999999999802 	8.247526413698843e-11 	101325.0000000213
-0.4842342342342345 	299.9999999999274 	4.57663489453404e-11 	101325.0000000081
-0.481731731731732 	300.0000000000448 	2.995563579162394e-11 	101325.0000000005
-0.4792292292292296 	300.0000000000267 	1.52667453349902e-11 	101324.9999999961
-0.4767267267267268 	299.9999999999482 	1.368985235630494e-11 	101324.9999999937
-0.4742242242242246 	299.9999999999907 	5.29076006043074e-12 	101324.9999999923
-0.471721721721722 	299.9999999999538 	7.571819774647547e-12 	101324.9999999916
-0.4692192192192195 	299.9999999999715 	2.320502610266844e-12 	101324.9999999912
-0.4667167167167169 	299.9999999999038 	4.672095844495839e-12 	101324.9999999909
-0.4642142142142145 	299.999999999992 	1.245042098590207e-12 	101324.9999999906
-0.461711711711712 	300.0000000000135 	3.917507556236941e-12 	101324.9999999903
-0.4592092092092094 	300.000000000013 	1.491493827142764e-12 	101324.9999999906
-0.456706706706707 	300.0000000000523 	3.621291928761043e-12 	101324.9999999907
-0.4542042042042045 	299.9999999999354 	1.610559538453718e-12 	101324.9999999909
-0.451701701701702 	299.999999999946 	2.587102357619518e-12 	101324.9999999911
-0.4491991991991995 	299.9999999999501 	7.677767634851592e-13 	101324.9999999911
-0.4466966966966969 	299.9999999999413 	2.744586989163335e-12 	101324.9999999909
-0.4441941941941945 	299.9999999999904 	1.349835770746822e-12 	101324.999999991
-0.441691691691692 	299.9999999999546 	3.107885874242755e-12 	101324.999999991
-0.4391891891891895 	299.9999999999877 	2.464931126226048e-12 	101324.9999999909
-0.436686686686687 	299.999999999963 	4.959191395683565e-12 	101324.9999999911
-0.4341841841841846 	300.0000000000003 	2.635705728291954e-12 	101324.9999999909
-0.431681681681682 	299.9999999999443 	5.362723986547168e-12 	101324.9999999908
-0.4291791791791794 	299.9999999999242 	1.065948030804039e-12 	101324.9999999908
-0.426676676676677 	299.9999999998997 	4.913593458431092e-12 	101324.9999999907
-0.4241741741741744 	299.9999999999641 	2.20760537973086e-12 	101324.999999991
-0.421671671671672 	300.0000000000025 	5.969269459141983e-12 	101324.9999999909
-0.4191691691691694 	300.0000000000539 	3.841503263454485e-12 	101324.9999999909
-0.4166666666666669 	300.0000000000632 	6.133074039945476e-12 	101324.999999991
-0.4141641641641645 	299.9999999999286 	3.926713307392325e-12 	101324.9999999909
-0.411661661661662 	300.0000000000065 	4.599584332916441e-12 	101324.9999999909
-0.4091591591591594 	299.9999999999991 	2.894843158829848e-12 	101324.9999999908
-0.406656656656657 	299.999999999939 	4.493835655738731e-12 	101324.999999991
-0.4041541541541545 	300.0000000000193 	2.027847932332999e-12 	101324.9999999907
-0.401651651651652 	299.9999999999116 	4.570452615609135e-12 	101324.9999999907
-0.3991491491491494 	299.9999999999964 	1.546615994449919e-12 	101324.9999999906
-0.396646646646647 	299.9999999999533 	4.500588765639603e-12 	101324.9999999905
-0.3941441441441444 	299.9999999999748 	2.534501927554943e-12 	101324.9999999904
-0.3916416416416419 	299.9999999999237 	4.001353184652244e-12 	101324.9999999903
-0.3891391391391395 	299.9999999999579 	1.273376460210107e-12 	101324.9999999903
-0.3866366366366368 	299.9999999999542 	3.396666036221942e-12 	101324.9999999902
-0.3841341341341344 	299.9999999999953 	1.188154632434198e-12 	101324.9999999902
-0.381631631631632 	299.9999999999486 	1.763038520493775e-12 	101324.9999999899
-0.3791291291291294 	300.0000000000056 	6.346198090907564e-13 	101324.9999999898
-0.3766266266266269 	300.0000000000258 	2.342315849558114e-13 	101324.9999999897
-0.3741241241241244 	300.0000000000284 	1.509191899182918e-12 	101324.9999999899
-0.371621621621622 	300.0000000000182 	4.661009187952788e-13 	101324.99999999
-0.3691191191191194 	300.000000000003 	3.056872114908021e-12 	101324.9999999903
-0.366616616616617 	300.0000000000035 	1.191466594791239e-12 	101324.9999999905
-0.3641141141141143 	299.9999999999564 	3.571510088028299e-12 	101324.9999999905
-0.3616116116116119 	299.9999999999462 	1.475733029259727e-12 	101324.9999999907
-0.3591091091091095 	299.9999999999862 	3.021177624407468e-12 	101324.9999999906
-0.356606606606607 	299.9999999999839 	2.345086093508748e-12 	101324.9999999906
-0.3541041041041044 	299.9999999999851 	2.195644385893512e-12 	101324.9999999906
-0.3516016016016019 	300.0000000000028 	3.03277199758569e-12 	101324.9999999907
-0.3490990990990994 	299.9999999999901 	1.360249281309267e-12 	101324.9999999909
-0.346596596596597 	300.0000000000458 	3.497073689794552e-12 	101324.9999999909
-0.3440940940940944 	300.0000000000544 	1.616346572236644e-12 	101324.9999999907
-0.3415915915915919 	300.0000000000219 	4.351725976134865e-12 	101324.9999999906
-0.3390890890890895 	299.9999999999791 	2.085779886394352e-12 	101324.9999999904
-0.3365865865865869 	300.0000000000206 	3.166467700251288e-12 	101324.9999999904
-0.3340840840840844 	300.0000000000021 	1.718923304238177e-12 	101324.9999999905
-0.3315815815815819 	300.0000000000231 	2.260127343483827e-12 	101324.9999999906
-0.3290790790790794 	300.0000000000222 	1.962136031732661e-12 	101324.9999999906
-0.3265765765765769 	299.9999999999206 	3.040069913221626e-12 	101324.9999999907
-0.3240740740740744 	299.999999999994 	1.874771419085702e-12 	101324.9999999908
-0.3215715715715718 	300.0000000000056 	3.700377951267257e-12 	101324.9999999905
-0.3190690690690695 	299.9999999999288 	1.738025742528103e-12 	101324.9999999906
-0.3165665665665668 	299.999999999989 	3.892222767958759e-12 	101324.9999999908
-0.3140640640640644 	300.0000000000096 	1.510495081988907e-12 	101324.999999991
-0.311561561561562 	299.9999999999202 	5.435235158197644e-12 	101324.9999999913
-0.3090590590590593 	299.9999999999929 	8.606305929732936e-13 	101324.9999999913
-0.3065565565565568 	300.0000000000042 	6.33100560224262e-12 	101324.9999999915
-0.3040540540540545 	300.0000000000003 	1.673843979668926e-12 	101324.9999999914
-0.3015515515515518 	300.0000000000343 	5.254100193023798e-12 	101324.9999999914
-0.2990490490490494 	299.9999999999468 	9.571527962577127e-13 	101324.9999999914
-0.2965465465465469 	299.9999999999837 	2.990605742263639e-12 	101324.9999999912
-0.2940440440440444 	299.999999999994 	1.850055134090293e-12 	101324.9999999911
-0.2915415415415418 	300.0000000000028 	3.121200456046077e-12 	101324.9999999911
-0.2890390390390395 	300.0000000000048 	3.375020981283096e-12 	101324.999999991
-0.2865365365365368 	299.9999999999802 	2.390332908540615e-12 	101324.9999999909
-0.2840340340340343 	299.9999999999968 	4.100848744042166e-12 	101324.9999999907
-0.2815315315315318 	299.9999999999287 	1.718575845060973e-12 	101324.9999999908
-0.2790290290290295 	299.9999999999618 	3.238686458599189e-12 	101324.9999999908
-0.2765265265265269 	300.0000000000101 	1.638467196906418e-12 	101324.9999999906
-0.2740240240240244 	300.0000000000237 	2.837810358819444e-12 	101324.9999999907
-0.2715215215215219 	300.0000000000215 	2.943713081547125e-12 	101324.9999999906
-0.2690190190190194 	299.9999999999373 	2.555070515084892e-12 	101324.9999999907
-0.2665165165165169 	299.9999999999991 	2.811580720521349e-12 	101324.9999999905
-0.2640140140140144 	299.9999999999616 	1.795071491586998e-12 	101324.9999999906
-0.2615115115115119 	300.0000000000019 	3.426106816002818e-12 	101324.9999999909
-0.2590090090090094 	299.9999999999291 	1.69154639326917e-12 	101324.9999999911
-0.2565065065065068 	299.999999999993 	2.681079454898912e-12 	101324.9999999914
-0.2540040040040044 	299.9999999999968 	3.055006491333952e-12 	101324.9999999913
-0.2515015015015019 	300.0000000000386 	2.421043310459332e-12 	101324.9999999914
-0.2489989989989994 	300.0000000000442 	4.339222634759289e-12 	101324.9999999914
-0.2464964964964968 	299.9999999999909 	1.185989877352851e-12 	101324.9999999914
-0.2439939939939944 	300.0000000000022 	5.222736057738777e-12 	101324.9999999913
-0.2414914914914919 	299.9999999999702 	1.340825350152107e-12 	101324.9999999911
-0.2389889889889893 	299.9999999999998 	5.846823254741216e-12 	101324.999999991
-0.2364864864864869 	300.0000000000273 	2.111518006228747e-12 	101324.9999999913
-0.2339839839839843 	299.9999999999275 	6.207022807284819e-12 	101324.9999999913
-0.2314814814814819 	299.999999999982 	1.396874220153494e-12 	101324.9999999916
-0.2289789789789792 	299.9999999999109 	4.085640520901012e-12 	101324.9999999915
-0.2264764764764769 	299.9999999999461 	6.650532685612194e-13 	101324.9999999916
-0.2239739739739743 	299.9999999999582 	1.945151374734054e-12 	101324.9999999915
-0.2214714714714718 	299.9999999999378 	1.160987850378293e-12 	101324.9999999913
-0.2189689689689693 	299.9999999999661 	8.531810056269192e-13 	101324.9999999912
-0.2164664664664669 	299.9999999999787 	1.76814948766525e-12 	101324.9999999911
-0.2139639639639643 	299.9999999999253 	5.0405638451341e-13 	101324.9999999909
-0.2114614614614618 	299.999999999974 	1.425007660083032e-12 	101324.9999999911
-0.2089589589589593 	299.9999999999916 	1.748273882032124e-12 	101324.9999999913
-0.2064564564564568 	299.999999999989 	1.972478192642014e-12 	101324.9999999912
-0.2039539539539543 	299.9999999999047 	3.598152184873996e-12 	101324.9999999912
-0.2014514514514518 	299.999999999948 	1.472987922287774e-12 	101324.9999999912
-0.1989489489489494 	299.9999999999689 	4.481333795444793e-12 	101324.9999999912
-0.1964464464464468 	299.9999999999932 	1.703900748754107e-12 	101324.9999999912
-0.1939439439439443 	299.9999999999902 	5.30784000310696e-12 	101324.9999999912
-0.1914414414414418 	299.9999999999138 	2.86447089773777e-12 	101324.9999999909
-0.1889389389389393 	300.0000000000105 	4.616331047972362e-12 	101324.9999999907
-0.1864364364364368 	300.0000000000471 	2.929424192113344e-12 	101324.9999999907
-0.1839339339339343 	299.9999999999742 	4.080858564431113e-12 	101324.9999999903
-0.1814314314314318 	299.9999999999941 	2.396561467898616e-12 	101324.9999999904
-0.1789289289289293 	299.9999999998967 	3.436578189771626e-12 	101324.9999999906
-0.1764264264264268 	299.9999999999773 	5.015394771258556e-13 	101324.9999999906
-0.1739239239239243 	299.9999999998961 	2.697054043014231e-12 	101324.9999999907
-0.1714214214214218 	299.999999999982 	2.465908076996094e-12 	101324.9999999907
-0.1689189189189193 	299.9999999999448 	3.274463054331708e-12 	101324.9999999908
-0.1664164164164168 	299.9999999999972 	3.817183336556541e-12 	101324.9999999906
-0.1639139139139143 	299.9999999999832 	4.606305394778923e-12 	101324.9999999906
-0.1614114114114118 	300.0000000000277 	5.022565554350595e-12 	101324.9999999906
-0.1589089089089093 	300 	6.479309395543746e-12 	101324.9999999907
-0.1564064064064068 	299.9999999999837 	5.980856565326184e-12 	101324.9999999908
-0.1539039039039043 	299.9999999999903 	7.069450324041869e-12 	101324.999999991
-0.1514014014014018 	300.0000000000244 	4.687566086841198e-12 	101324.999999991
-0.1488988988988993 	299.9999999999888 	7.351457488905331e-12 	101324.999999991
-0.1463963963963968 	299.9999999999974 	2.167767373433603e-12 	101324.9999999909
-0.1438938938938943 	299.9999999999536 	7.851819390643845e-12 	101324.9999999909
-0.1413913913913918 	299.9999999999246 	1.926625441126552e-12 	101324.9999999909
-0.1388888888888893 	299.999999999978 	8.181548819666242e-12 	101324.9999999907
-0.1363863863863868 	299.9999999998864 	4.469539667800052e-12 	101324.9999999907
-0.1338838838838843 	299.9999999999034 	7.416438650719706e-12 	101324.9999999904
-0.1313813813813818 	299.9999999999936 	4.139055447811037e-12 	101324.9999999905
-0.1288788788788793 	299.9999999999541 	6.862591842068755e-12 	101324.9999999908
-0.1263763763763768 	299.999999999969 	3.855521574813509e-12 	101324.9999999909
-0.1238738738738743 	299.9999999999207 	6.818990837700423e-12 	101324.9999999911
-0.1213713713713717 	299.9999999999687 	2.544454488171729e-12 	101324.9999999911
-0.1188688688688693 	300.0000000000027 	6.388633632730007e-12 	101324.999999991
-0.1163663663663668 	299.9999999999033 	1.167482284012428e-12 	101324.9999999909
-0.1138638638638643 	299.9999999999918 	6.188107392699322e-12 	101324.9999999908
-0.1113613613613618 	299.9999999999881 	6.03169646441744e-13 	101324.9999999908
-0.1088588588588592 	299.9999999999777 	5.358063839439114e-12 	101324.9999999909
-0.1063563563563568 	299.9999999999442 	1.962420078453897e-12 	101324.9999999907
-0.1038538538538543 	299.999999999966 	3.493719674831345e-12 	101324.9999999905
-0.1013513513513517 	300.0000000000148 	7.287240541369949e-13 	101324.9999999905
-0.09884884884884926 	299.9999999999379 	3.919079452100633e-12 	101324.9999999906
-0.09634634634634676 	299.9999999998784 	8.256386179644834e-13 	101324.9999999907
-0.09384384384384425 	299.9999999999253 	2.519088585177902e-12 	101324.9999999905
-0.09134134134134177 	300.0000000000239 	2.469056607790759e-13 	101324.9999999903
-0.08883883883883925 	300.0000000000102 	1.604479118503948e-12 	101324.9999999905
-0.08633633633633674 	299.999999999948 	6.718820179702086e-13 	101324.9999999905
-0.08383383383383426 	300.0000000000117 	8.649126820339843e-13 	101324.9999999904
-0.08133133133133173 	299.9999999999685 	1.082028908655056e-12 	101324.9999999907
-0.07882882882882926 	299.9999999998733 	1.079145382454311e-12 	101324.9999999908
-0.07632632632632676 	299.9999999999515 	8.571479606389182e-13 	101324.9999999907
-0.07382382382382424 	299.9999999998897 	9.355800862832084e-13 	101324.9999999905
-0.07132132132132173 	300.0000000000149 	4.796570342344393e-13 	101324.9999999904
-0.06881881881881925 	299.999999999949 	9.433303490270601e-13 	101324.9999999906
-0.06631631631631671 	299.9999999998894 	1.142709042257536e-12 	101324.9999999906
-0.06381381381381425 	299.9999999999616 	1.695204477881554e-12 	101324.9999999907
-0.06131131131131173 	299.9999999999636 	2.010502994530898e-12 	101324.9999999905
-0.05880880880880923 	299.9999999999176 	2.32842130790099e-12 	101324.9999999905
-0.05630630630630672 	299.9999999999736 	2.356655852333419e-12 	101324.9999999904
-0.05380380380380424 	300.0000000000136 	2.426495883861842e-12 	101324.9999999902
-0.05130130130130173 	300.0000000000122 	2.376284756013104e-12 	101324.9999999901
-0.04879879879879922 	299.9999999999307 	2.578381224617726e-12 	101324.99999999
-0.04629629629629672 	299.9999999999112 	1.659207747401152e-12 	101324.99999999
-0.04379379379379422 	299.99999999993 	1.572324528582429e-12 	101324.9999999898
-0.04129129129129173 	299.9999999999742 	1.264088111059924e-12 	101324.9999999899
-0.03878878878878922 	299.9999999999815 	1.388430474378359e-12 	101324.9999999901
-0.03628628628628671 	299.9999999999816 	1.145174570465802e-12 	101324.9999999905
-0.03378378378378422 	299.9999999999172 	5.675047479390685e-13 	101324.9999999908
-0.03128128128128172 	299.9999999999614 	7.554971208965761e-14 	101324.9999999908
-0.02877877877877922 	299.999999999962 	4.994473031416199e-13 	101324.9999999912
-0.0262762762762767 	299.9999999998976 	3.219918937961419e-13 	101324.9999999911
-0.02377377377377422 	300.0000000000196 	2.196502577504321e-13 	101324.9999999912
-0.0212712712712717 	299.9999999998988 	5.936368943125802e-13 	101324.9999999912
-0.01876876876876921 	299.9999999999599 	2.293795414748231e-13 	101324.9999999909
-0.01626626626626671 	300.0000000000158 	1.198383704979436e-12 	101324.9999999909
-0.0137637637637642 	299.9999999999665 	1.104023519783049e-12 	101324.9999999909
-0.0112612612612617 	300.0000000000146 	1.303117699820989e-12 	101324.999999991
-0.008758758758759198 	299.9999999999911 	9.501982403615993e-13 	101324.9999999913
-0.006256256256256697 	299.9999999998808 	1.323317934411923e-12 	101324.9999999913
-0.003753753753754195 	299.9999999999491 	4.004094704563526e-14 	101324.999999991
-0.001251251251251693 	299.999999999921 	5.145453877723003e-13 	101324.9999999912
0.00125125125125081 	299.9999999999498 	2.754083176147729e-14 	101324.9999999913
0.003753753753753312 	299.9999999999564 	7.2934187104891e-13 	101324.9999999912
0.006256256256255817 	299.9999999998778 	1.528177889728605e-13 	101324.9999999911
0.008758758758758317 	299.9999999999931 	2.18362405453554e-13 	101324.9999999909
0.01126126126126082 	300.0000000000088 	4.115977336348024e-13 	101324.9999999905
0.01376376376376332 	299.999999999962 	3.253916530855074e-13 	101324.9999999906
0.01626626626626582 	300.0000000000124 	7.254057564662577e-13 	101324.9999999905
0.01876876876876833 	299.9999999999513 	4.061275311132624e-13 	101324.9999999906
0.02127127127127083 	299.999999999969 	4.040009693063078e-13 	101324.9999999906
0.02377377377377332 	299.9999999999952 	6.024026842105367e-13 	101324.9999999907
0.02627627627627583 	299.9999999998922 	2.688048748943024e-13 	101324.999999991
0.02877877877877833 	300.0000000000082 	3.585206968345074e-13 	101324.9999999911
0.03128128128128083 	299.9999999999468 	2.062004703677039e-13 	101324.9999999913
0.03378378378378333 	299.9999999998996 	1.179898386401308e-12 	101324.9999999914
0.03628628628628584 	299.999999999965 	9.276465537856321e-13 	101324.9999999915
0.03878878878878834 	299.9999999999793 	3.536250197000942e-13 	101324.9999999914
0.04129129129129084 	299.9999999999742 	2.413219569747141e-13 	101324.9999999913
0.04379379379379333 	299.9999999999398 	3.528635090364067e-14 	101324.9999999913
0.04629629629629585 	299.9999999998843 	4.035701655559119e-13 	101324.9999999913
0.04879879879879834 	299.9999999999541 	2.836487641504212e-13 	101324.9999999909
0.05130130130130085 	300.0000000000133 	1.275651291944068e-13 	101324.9999999909
0.05380380380380335 	300.0000000000196 	9.475338883447317e-14 	101324.9999999907
0.05630630630630584 	299.9999999999932 	2.494085179510806e-14 	101324.9999999908
0.05880880880880836 	299.9999999999138 	4.460692387508223e-13 	101324.9999999908
0.06131131131131085 	299.9999999999663 	3.447415224036302e-13 	101324.999999991
0.06381381381381336 	299.9999999999547 	5.575633727820549e-13 	101324.999999991
0.06631631631631586 	299.9999999998871 	1.158847985624756e-12 	101324.9999999912
0.06881881881881835 	299.9999999999562 	2.120098206177282e-12 	101324.9999999913
0.07132132132132088 	299.9999999999847 	1.315711194893838e-12 	101324.9999999914
0.07382382382382337 	299.9999999998936 	1.063308982733432e-12 	101324.9999999914
0.07632632632632587 	299.9999999999658 	1.322577812610786e-12 	101324.9999999912
0.07882882882882837 	299.9999999999383 	1.426710706312425e-12 	101324.999999991
0.08133133133133086 	299.9999999999772 	1.952440877638397e-12 	101324.9999999907
0.08383383383383337 	299.9999999999826 	1.275629549113714e-12 	101324.9999999907
0.08633633633633589 	299.9999999999039 	1.407261602157176e-12 	101324.9999999907
0.08883883883883838 	300.0000000000011 	1.907956869221001e-12 	101324.9999999908
0.09134134134134086 	299.999999999976 	1.513631933833649e-12 	101324.9999999909
0.09384384384384339 	299.999999999891 	2.092134440709126e-12 	101324.9999999907
0.09634634634634588 	299.9999999999663 	2.450071990435152e-12 	101324.9999999909
0.09884884884884838 	299.9999999999711 	2.823044118950903e-12 	101324.9999999908
0.1013513513513509 	300.0000000000157 	3.12944305897668e-12 	101324.9999999907
0.1038538538538534 	299.9999999999508 	3.035329360688613e-12 	101324.9999999907
0.1063563563563559 	300.0000000000103 	3.635399176687894e-12 	101324.9999999907
0.1088588588588584 	300.0000000000258 	3.143033901033594e-12 	101324.9999999909
0.1113613613613609 	299.9999999999085 	3.445948794368414e-12 	101324.9999999907
0.1138638638638634 	299.9999999999432 	3.296443522966927e-12 	101324.9999999905
0.1163663663663659 	299.9999999999498 	3.461202846193122e-12 	101324.9999999902
0.1188688688688684 	299.999999999961 	4.099326148787383e-12 	101324.9999999901
0.1213713713713709 	299.999999999996 	3.696066170072717e-12 	101324.9999999903
0.1238738738738734 	299.9999999999245 	3.814077693880823e-12 	101324.9999999904
0.1263763763763759 	299.999999999981 	4.441143731358324e-12 	101324.9999999904
0.1288788788788784 	299.9999999999852 	4.316405932703501e-12 	101324.9999999907
0.1313813813813809 	299.9999999999844 	4.940663892538321e-12 	101324.9999999907
0.1338838838838834 	299.9999999999736 	4.957898322136927e-12 	101324.9999999909
0.1363863863863859 	300.0000000000222 	4.347244162700917e-12 	101324.9999999909
0.1388888888888884 	300.0000000000518 	3.912660826651928e-12 	101324.9999999907
0.1413913913913909 	300.0000000000051 	2.680122639522109e-12 	101324.9999999907
0.1438938938938934 	299.9999999999934 	2.913383109521326e-12 	101324.9999999907
0.1463963963963959 	299.9999999999532 	1.265916037751399e-12 	101324.9999999909
0.1488988988988985 	299.9999999999051 	2.794920314887e-12 	101324.9999999909
0.1514014014014009 	299.9999999999692 	1.045225489842009e-12 	101324.9999999911
0.1539039039039035 	299.9999999999628 	3.025906764986393e-12 	101324.9999999907
0.1564064064064059 	299.9999999999263 	5.590069234054065e-13 	101324.9999999906
0.1589089089089084 	299.9999999999754 	3.453192593208236e-12 	101324.9999999905
0.1614114114114109 	299.9999999999715 	8.792926531319012e-13 	101324.9999999907
0.1639139139139134 	299.9999999999077 	3.109546366421673e-12 	101324.9999999906
0.166416416416416 	300.0000000000077 	1.326695324702305e-12 	101324.9999999902
0.1689189189189185 	300.0000000000329 	1.457217971479762e-12 	101324.9999999899
0.1714214214214209 	300.0000000000102 	1.660156022354229e-12 	101324.9999999897
0.1739239239239235 	299.9999999999891 	1.983648682309581e-13 	101324.9999999899
0.1764264264264259 	299.9999999999665 	1.778589192776728e-12 	101324.9999999898
0.1789289289289284 	300.0000000000059 	6.186103328242547e-13 	101324.9999999897
0.181431431431431 	299.9999999999608 	2.569050801991918e-12 	101324.9999999899
0.1839339339339334 	299.9999999999693 	6.810672646015158e-13 	101324.9999999898
0.186436436436436 	299.9999999999239 	1.603346069763455e-12 	101324.9999999898
0.1889389389389385 	299.9999999999811 	1.266717365626053e-12 	101324.9999999898
0.191441441441441 	299.999999999975 	6.601858238948344e-13 	101324.9999999898
0.1939439439439434 	299.999999999913 	1.925530845380863e-12 	101324.9999999897
0.196446446446446 	299.9999999999401 	2.765209342083184e-13 	101324.9999999899
0.1989489489489485 	299.9999999999604 	2.481948195344069e-12 	101324.9999999898
0.2014514514514509 	299.9999999999822 	7.875678572318822e-13 	101324.9999999895
0.2039539539539535 	299.9999999999921 	2.463745838852204e-12 	101324.9999999896
0.2064564564564559 	299.9999999999529 	1.719153607458299e-12 	101324.9999999896
0.2089589589589585 	299.9999999999847 	1.692401522239077e-12 	101324.9999999899
0.211461461461461 	299.9999999999241 	1.786607130520444e-12 	101324.9999999899
0.2139639639639635 	299.9999999999792 	1.422655012984351e-12 	101324.9999999902
0.2164664664664659 	300.0000000000073 	2.668749888442326e-12 	101324.9999999904
0.2189689689689684 	300.0000000000065 	6.60693653802258e-13 	101324.9999999906
0.221471471471471 	299.9999999999982 	2.590270969566433e-12 	101324.9999999905
0.2239739739739735 	299.9999999999548 	1.119004016124525e-12 	101324.9999999906
0.226476476476476 	299.9999999999841 	3.16423634769843e-12 	101324.9999999906
0.2289789789789785 	299.99999999999 	1.888215531344645e-12 	101324.9999999906
0.231481481481481 	299.9999999999687 	2.25910874299165e-12 	101324.9999999905
0.2339839839839835 	299.9999999999952 	3.131762038799283e-12 	101324.9999999904
0.236486486486486 	300.0000000000265 	2.119216293985436e-12 	101324.9999999907
0.2389889889889885 	299.9999999999999 	3.692428736151526e-12 	101324.9999999908
0.241491491491491 	299.9999999999124 	1.346458495586196e-12 	101324.9999999906
0.2439939939939935 	299.9999999999728 	4.218000091029259e-12 	101324.9999999906
0.246496496496496 	299.9999999999902 	1.719028335980133e-12 	101324.9999999905
0.2489989989989985 	300.0000000000391 	2.877806391670816e-12 	101324.9999999907
0.251501501501501 	300.0000000000329 	1.422210457681793e-12 	101324.9999999907
0.2540040040040035 	299.9999999999872 	1.412521457624308e-12 	101324.9999999906
0.256506506506506 	300.0000000000264 	1.336118278159891e-12 	101324.9999999905
0.2590090090090086 	299.9999999999097 	1.034433534280639e-12 	101324.9999999905
0.261511511511511 	300.0000000000043 	1.92799221658812e-12 	101324.9999999905
0.2640140140140135 	299.9999999999921 	1.311172507222892e-12 	101324.9999999903
0.2665165165165161 	299.9999999999295 	9.50712031829123e-13 	101324.9999999902
0.2690190190190185 	300.000000000012 	2.837651451880943e-13 	101324.9999999902
0.271521521521521 	300.0000000000149 	2.166454698406339e-13 	101324.9999999901
0.2740240240240235 	300.0000000000156 	3.165948288272086e-13 	101324.9999999899
0.276526526526526 	300.0000000000061 	1.64822409374319e-13 	101324.9999999897
0.2790290290290286 	299.9999999999372 	1.307516225931517e-12 	101324.9999999899
0.281531531531531 	299.9999999999196 	4.72643636789536e-13 	101324.9999999899
0.2840340340340335 	299.9999999999768 	2.137776542874487e-12 	101324.9999999901
0.2865365365365361 	299.9999999999577 	1.528099428706454e-12 	101324.9999999904
0.2890390390390385 	299.9999999999945 	2.245510886877317e-12 	101324.9999999905
0.291541541541541 	299.9999999999953 	2.386616849045098e-12 	101324.9999999903
0.2940440440440436 	299.9999999999928 	1.694673902134771e-12 	101324.9999999901
0.296546546546546 	299.9999999999874 	2.952365451796045e-12 	101324.9999999901
0.2990490490490486 	299.999999999932 	1.049985100790807e-12 	101324.9999999903
0.3015515515515511 	300.0000000000348 	4.606177027814354e-12 	101324.9999999905
0.3040540540540535 	300.0000000000083 	1.837152939095224e-12 	101324.9999999906
0.3065565565565562 	299.9999999999851 	4.528318532834286e-12 	101324.9999999903
0.3090590590590585 	299.9999999999858 	1.821559452861062e-12 	101324.99999999
0.3115615615615611 	299.9999999999313 	3.098099907649555e-12 	101324.9999999902
0.3140640640640635 	300.0000000000093 	1.322799166616634e-12 	101324.9999999902
0.316566566566566 	299.9999999999942 	2.202313863889371e-12 	101324.9999999904
0.3190690690690687 	299.9999999999428 	8.13448029019618e-13 	101324.9999999903
0.3215715715715711 	300.0000000000147 	2.184690884144443e-12 	101324.9999999903
0.3240740740740735 	299.9999999999974 	9.384857438895505e-13 	101324.9999999905
0.326576576576576 	299.9999999999015 	1.277758025273444e-12 	101324.9999999904
0.3290790790790786 	300.0000000000073 	2.323324891424837e-13 	101324.9999999905
0.3315815815815811 	300.0000000000347 	1.181681668250499e-12 	101324.9999999904
0.3340840840840836 	299.999999999986 	5.446327282123126e-13 	101324.9999999903
0.3365865865865861 	300.0000000000555 	1.025570742853786e-12 	101324.9999999901
0.3390890890890886 	300.0000000000477 	1.07882417014309e-12 	101324.9999999901
0.3415915915915911 	299.9999999999998 	7.051346782586739e-13 	101324.9999999901
0.3440940940940935 	299.9999999999541 	1.558290751676653e-12 	101324.9999999904
0.3465965965965962 	300.0000000000318 	6.166952624249988e-13 	101324.9999999904
0.3490990990990985 	300.0000000000255 	1.405963295000755e-12 	101324.9999999905
0.3516016016016011 	299.9999999999895 	7.150207184340648e-13 	101324.9999999904
0.3541041041041035 	300.0000000000042 	6.670286455809162e-13 	101324.9999999904
0.3566066066066061 	299.9999999999521 	1.162500940567672e-12 	101324.9999999906
0.3591091091091085 	299.9999999999203 	1.105370898527916e-12 	101324.9999999905
0.3616116116116112 	299.999999999937 	1.437279867377419e-12 	101324.9999999902
0.3641141141141137 	299.9999999999308 	1.923085478515104e-12 	101324.9999999899
0.3666166166166161 	299.9999999999251 	2.756035435311458e-12 	101324.9999999899
0.3691191191191185 	300.0000000000418 	2.588117096405931e-12 	101324.99999999
0.371621621621621 	300.0000000000115 	3.005903975026934e-12 	101324.99999999
0.3741241241241237 	300.0000000000524 	2.013080769129583e-12 	101324.9999999901
0.3766266266266261 	300.0000000000297 	1.762245403836207e-12 	101324.99999999
0.3791291291291286 	299.9999999999851 	2.072360438738691e-12 	101324.99999999
0.3816316316316311 	299.9999999999264 	1.170434451053316e-12 	101324.9999999899
0.3841341341341336 	300.0000000000168 	2.079503557132455e-12 	101324.9999999899
0.3866366366366362 	299.9999999999981 	8.253353280718645e-13 	101324.9999999898
0.3891391391391387 	299.9999999999527 	1.369697289735189e-12 	101324.9999999897
0.391641641641641 	299.9999999999977 	6.33749012666773e-13 	101324.9999999898
0.3941441441441436 	300.0000000000067 	1.177499598884762e-12 	101324.9999999897
0.3966466466466462 	299.9999999999986 	9.016937721811764e-13 	101324.9999999896
0.3991491491491486 	299.9999999999486 	7.570141857149311e-13 	101324.9999999897
0.4016516516516512 	299.9999999999073 	1.463746672803096e-12 	101324.9999999897
0.4041541541541536 	299.9999999999436 	1.309904912958193e-12 	101324.9999999897
0.4066566566566561 	299.9999999999452 	1.249079771429693e-12 	101324.9999999899
0.4091591591591587 	299.9999999999924 	1.165387821709438e-12 	101324.9999999901
0.4116616616616612 	300.0000000000057 	9.121673946730593e-13 	101324.9999999902
0.4141641641641635 	300.0000000000439 	1.036126139520633e-13 	101324.9999999902
0.4166666666666662 	299.9999999999973 	3.069938388223274e-13 	101324.9999999901
0.4191691691691687 	299.9999999999386 	1.556975419805066e-12 	101324.9999999901
0.421671671671671 	300.0000000000148 	1.550993448501839e-12 	101324.9999999901
0.4241741741741737 	299.9999999999795 	3.077321161966869e-12 	101324.9999999898
0.4266766766766761 	299.9999999999541 	1.707431263404824e-12 	101324.9999999897
0.4291791791791785 	300.0000000000199 	4.403580776698794e-12 	101324.99999999
0.4316816816816812 	300.0000000000106 	2.041263557559836e-12 	101324.99999999
0.4341841841841836 	299.9999999999815 	4.007025758944958e-12 	101324.9999999901
0.4366866866866862 	299.9999999999162 	1.092788715793839e-12 	101324.9999999901
0.4391891891891885 	299.999999999985 	2.494117690477337e-12 	101324.99999999
0.4416916916916913 	299.9999999999797 	9.106587348435559e-13 	101324.9999999901
0.4441941941941936 	299.9999999999855 	2.188391587433396e-12 	101324.9999999898
0.4466966966966961 	299.9999999999153 	5.753835751651524e-13 	101324.9999999897
0.4491991991991987 	299.9999999999791 	8.401386403261801e-13 	101324.9999999897
0.4517017017017012 	299.9999999999761 	1.816129796325644e-13 	101324.9999999896
0.4542042042042035 	299.9999999999867 	3.192830813079825e-13 	101324.9999999894
0.4567067067067062 	299.9999999999968 	2.98628103750008e-13 	101324.9999999895
0.4592092092092087 	299.9999999999264 	4.970628391267725e-13 	101324.9999999893
0.4617117117117112 	300.000000000019 	3.528585623008332e-13 	101324.9999999894
0.4642142142142137 	299.9999999999615 	2.503365303198429e-13 	101324.9999999894
0.4667167167167162 	299.9999999999938 	1.350066735849044e-13 	101324.9999999896
0.4692192192192187 	299.9999999999525 	1.506131858045555e-13 	101324.9999999895
0.4717217217217212 	300.0000000000103 	4.757934064797693e-13 	101324.9999999896
0.4742242242242236 	299.9999999999577 	4.100776944616615e-13 	101324.9999999898
0.4767267267267262 	299.9999999999661 	3.6960828508347e-13 	101324.9999999899
0.4792292292292287 	300.0000000000188 	3.050399456758666e-13 	101324.99999999
0.4817317317317312 	300.0000000000335 	2.316745336043922e-13 	101324.99999999
0.4842342342342336 	299.9999999999808 	4.751538362123091e-13 	101324.9999999898
0.4867367367367362 	299.9999999999553 	6.587246975126129e-13 	101324.99999999
0.4892392392392387 	300.0000000000292 	8.074643944467195e-13 	101324.9999999901
0.4917417417417412 	300.0000000000057 	1.344228914279358e-12 	101324.9999999904
0.4942442442442437 	299.9999999999071 	8.683127048080132e-13 	101324.9999999906
0.4967467467467462 	299.999999999928 	1.468496185499528e-12 	101324.9999999909
0.4992492492492487 	299.9999999999224 	9.539813782876626e-13 	101324.9999999909
0.5017517517517511 	299.9999999999617 	7.742169046860647e-13 	101324.999999991
0.5042542542542537 	299.9999999999663 	5.220039019443737e-13 	101324.9999999909
0.5067567567567562 	299.9999999999485 	6.527782071991497e-13 	101324.9999999907
0.5092592592592589 	299.9999999999644 	1.081477021045918e-12 	101324.9999999905
0.5117617617617611 	299.9999999999618 	1.296331589454799e-12 	101324.9999999904
0.5142642642642637 	299.9999999999935 	2.043726873791559e-12 	101324.9999999904
0.5167667667667663 	299.9999999999779 	1.926725893784669e-12 	101324.9999999903
0.5192692692692688 	299.9999999999201 	3.200408747980957e-12 	101324.9999999905
0.5217717717717714 	299.999999999947 	3.673979764065462e-12 	101324.9999999902
0.5242742742742736 	299.9999999999442 	2.647486320617222e-12 	101324.9999999898
0.5267767767767763 	299.9999999999618 	3.39726222984956e-12 	101324.9999999896
0.5292792792792789 	299.9999999999412 	1.361323195082222e-12 	101324.9999999898
0.5317817817817813 	299.9999999999102 	3.632927292039386e-12 	101324.9999999902
0.5342842842842837 	300.0000000000151 	2.217604891072614e-12 	101324.9999999904
0.5367867867867864 	300.0000000000024 	3.868595693692748e-12 	101324.9999999906
0.5392892892892888 	299.9999999999586 	2.503461327047933e-12 	101324.9999999908
0.5417917917917912 	300.0000000000013 	3.327491782974936e-12 	101324.9999999908
0.5442942942942938 	299.9999999999822 	2.144582707680912e-12 	101324.9999999907
0.5467967967967964 	299.9999999999437 	3.061504137246482e-12 	101324.9999999908
0.5492992992992988 	299.9999999999416 	2.055343927675824e-12 	101324.9999999907
0.5518018018018012 	299.999999999941 	3.123259550574646e-12 	101324.9999999905
0.5543043043043039 	300.0000000000193 	2.644235958647099e-12 	101324.9999999905
0.5568068068068063 	299.9999999999911 	3.748652728416305e-12 	101324.9999999905
0.5593093093093087 	299.9999999999085 	2.730829634242476e-12 	101324.9999999905
0.5618118118118114 	299.9999999999608 	4.897058976482187e-12 	101324.9999999903
0.5643143143143137 	299.9999999999401 	3.475205444731281e-12 	101324.9999999901
0.5668168168168163 	299.9999999999879 	4.195973953356267e-12 	101324.9999999901
0.5693193193193188 	300.0000000000284 	3.871131823430777e-12 	101324.99999999
0.5718218218218213 	300.0000000000224 	3.652055510932547e-12 	101324.9999999903
0.5743243243243239 	300.0000000000035 	4.676678779195317e-12 	101324.9999999904
0.5768268268268262 	300.0000000000043 	3.326246684357639e-12 	101324.9999999905
0.5793293293293288 	299.999999999945 	5.832004390302401e-12 	101324.9999999904
0.5818318318318314 	299.9999999999179 	3.353354594408603e-12 	101324.9999999903
0.5843343343343338 	299.9999999999821 	6.980064653306969e-12 	101324.9999999903
0.5868368368368363 	299.9999999999769 	2.949063823137503e-12 	101324.9999999904
0.5893393393393387 	299.9999999999499 	5.800529775749748e-12 	101324.9999999904
0.5918418418418413 	299.9999999999442 	3.232448874010645e-12 	101324.9999999905
0.5943443443443439 	300.0000000000173 	4.974139758006411e-12 	101324.9999999906
0.5968468468468463 	300.0000000000171 	2.926869848521397e-12 	101324.9999999908
0.5993493493493487 	300.0000000000405 	3.914769400243823e-12 	101324.999999991
0.6018518518518514 	299.9999999999816 	2.757834930572073e-12 	101324.9999999911
0.6043543543543537 	299.9999999999935 	4.138458813595739e-12 	101324.9999999913
0.6068568568568564 	299.9999999999814 	2.73021476529403e-12 	101324.9999999914
0.6093593593593587 	299.9999999999322 	3.603712569963617e-12 	101324.9999999914
0.6118618618618614 	299.999999999925 	2.275237072315424e-12 	101324.9999999915
0.6143643643643638 	300.0000000000152 	2.887118381849549e-12 	101324.9999999915
0.6168668668668662 	299.9999999999846 	1.464160802230997e-12 	101324.9999999912
0.6193693693693688 	299.9999999999579 	2.921882903871894e-12 	101324.9999999912
0.6218718718718714 	299.999999999967 	9.876746610079159e-13 	101324.9999999911
0.6243743743743737 	299.9999999999347 	2.22539612649399e-12 	101324.9999999908
0.6268768768768762 	299.9999999999225 	8.442598076417309e-13 	101324.9999999907
0.629379379379379 	299.9999999999514 	1.781431796452809e-12 	101324.9999999909
0.6318818818818812 	299.9999999999731 	1.439310483816038e-12 	101324.9999999911
0.6343843843843838 	300.0000000000177 	1.364117868862655e-12 	101324.9999999912
0.6368868868868864 	299.999999999986 	2.196557285325626e-12 	101324.9999999914
0.6393893893893888 	299.9999999999246 	1.594902490277045e-12 	101324.9999999915
0.6418918918918912 	300.0000000000039 	3.851535285237616e-12 	101324.9999999916
0.6443943943943939 	299.9999999999824 	2.887792427125946e-12 	101324.9999999915
0.6468968968968963 	299.9999999999857 	4.416148632654885e-12 	101324.9999999915
0.6493993993993988 	299.9999999999782 	2.341359801889509e-12 	101324.9999999914
0.6519019019019012 	299.9999999999765 	4.004201704961944e-12 	101324.9999999915
0.6544044044044038 	299.9999999999043 	1.73915776320845e-12 	101324.9999999914
0.6569069069069065 	299.999999999955 	4.880839704999103e-12 	101324.9999999915
0.6594094094094087 	299.9999999999606 	2.497028256410676e-12 	101324.9999999913
0.6619119119119113 	299.9999999999534 	4.534960375990819e-12 	101324.9999999911
0.664414414414414 	300.0000000000059 	2.265595478033193e-12 	101324.9999999911
0.6669169169169162 	300.0000000000136 	3.179354628371761e-12 	101324.9999999912
0.6694194194194188 	299.9999999999806 	1.2175567428689e-12 	101324.9999999914
0.6719219219219214 	299.9999999999222 	2.393998693345648e-12 	101324.9999999916
0.674424424424424 	299.9999999999759 	1.319632064108906e-12 	101324.9999999918
0.6769269269269262 	299.9999999999173 	2.154808784249612e-12 	101324.9999999918
0.679429429429429 	300.0000000000029 	1.623100248827222e-12 	101324.9999999917
0.6819319319319311 	299.999999999974 	2.245327834799379e-12 	101324.9999999917
0.6844344344344341 	299.9999999999916 	1.269143679714206e-12 	101324.999999992
0.686936936936936 	299.9999999999942 	1.76737487131886e-12 	101324.9999999921
0.6894394394394392 	299.9999999999987 	1.166869993164574e-12 	101324.9999999922
0.6919419419419413 	299.9999999999864 	1.204777667162829e-12 	101324.9999999922
0.694444444444444 	299.9999999999393 	1.240557217621957e-12 	101324.9999999922
0.6969469469469463 	299.9999999999281 	1.494433350758516e-12 	101324.9999999923
0.6994494494494489 	299.9999999999223 	2.363285994189235e-12 	101324.9999999922
0.7019519519519515 	299.9999999999878 	1.460094941812467e-12 	101324.9999999923
0.7044544544544538 	299.9999999999546 	2.820520304271849e-12 	101324.9999999923
0.7069569569569564 	299.999999999996 	1.472332188425757e-12 	101324.9999999922
0.7094594594594589 	299.999999999967 	2.903646400059127e-12 	101324.9999999923
0.7119619619619615 	299.9999999999148 	1.265491630912732e-12 	101324.9999999924
0.7144644644644638 	299.999999999956 	2.875003427704697e-12 	101324.9999999923
0.7169669669669665 	299.9999999999224 	2.037596049568523e-12 	101324.9999999923
0.7194694694694688 	299.9999999999864 	3.457122896574435e-12 	101324.9999999923
0.7219719719719715 	299.9999999999846 	2.816956491647042e-12 	101324.9999999924
0.7244744744744737 	300.0000000000078 	3.675852237053831e-12 	101324.9999999928
0.7269769769769764 	299.999999999998 	3.761855654279711e-12 	101324.999999993
0.7294794794794791 	299.9999999999869 	3.040670468639139e-12 	101324.9999999929
0.7319819819819813 	299.9999999999833 	4.54201690335619e-12 	101324.9999999927
0.7344844844844839 	299.9999999999264 	3.140588287768416e-12 	101324.9999999928
0.7369869869869864 	299.9999999999535 	4.015041610113352e-12 	101324.9999999928
0.739489489489489 	299.9999999999416 	3.346611551772887e-12 	101324.9999999928
0.7419919919919914 	299.9999999999272 	3.198369005753167e-12 	101324.9999999928
0.7444944944944939 	299.9999999999775 	3.646592796068709e-12 	101324.9999999928
0.7469969969969963 	299.9999999999653 	2.177859020806684e-12 	101324.9999999929
0.7494994994994989 	299.9999999999425 	4.102257305770213e-12 	101324.9999999929
0.7520020020020015 	299.9999999999691 	2.067007250640104e-12 	101324.999999993
0.7545045045045039 	299.999999999967 	5.258291263096973e-12 	101324.999999993
0.7570070070070062 	299.9999999999442 	3.540344041709357e-12 	101324.999999993
0.7595095095095092 	299.9999999999325 	5.674040164147382e-12 	101324.999999993
0.7620120120120112 	300.0000000000069 	4.639045416115328e-12 	101324.999999993
0.7645145145145138 	299.9999999999898 	4.565703031738244e-12 	101324.9999999929
0.7670170170170165 	299.9999999999393 	4.70867947841293e-12 	101324.9999999928
0.7695195195195191 	299.999999999927 	3.761908803683823e-12 	101324.9999999927
0.7720220220220213 	299.9999999999325 	5.705581624924967e-12 	101324.9999999927
0.7745245245245239 	299.9999999999322 	4.362612624297804e-12 	101324.9999999926
0.7770270270270263 	299.9999999999779 	6.155855993796701e-12 	101324.9999999928
0.779529529529529 	299.9999999999836 	5.397794136749852e-12 	101324.999999993
0.7820320320320313 	299.9999999999721 	6.083120281235181e-12 	101324.9999999931
0.784534534534534 	300.0000000000005 	5.633574246300161e-12 	101324.999999993
0.7870370370370364 	299.9999999999994 	5.074214232588833e-12 	101324.9999999929
0.7895395395395389 	299.9999999999969 	4.91112635317062e-12 	101324.9999999928
0.7920420420420413 	299.9999999999774 	3.011769166049008e-12 	101324.9999999927
0.794544544544544 	299.9999999999661 	4.458846545853161e-12 	101324.9999999927
0.7970470470470463 	299.9999999999999 	2.475471124470809e-12 	101324.9999999928
0.799549549549549 	299.9999999999837 	4.805852372835251e-12 	101324.999999993
0.8020520520520515 	299.9999999999876 	2.297721616605475e-12 	101324.9999999932
0.8045545545545539 	299.9999999999482 	4.195680291463246e-12 	101324.9999999933
0.8070570570570563 	299.9999999999745 	3.322270718143268e-12 	101324.9999999931
0.8095595595595589 	299.9999999999535 	4.170088229858531e-12 	101324.9999999931
0.8120620620620614 	299.999999999942 	4.511755270654346e-12 	101324.9999999932
0.8145645645645638 	300.0000000000007 	4.812195533818074e-12 	101324.9999999932
0.8170670670670666 	299.9999999999968 	5.702021119258622e-12 	101324.9999999932
0.8195695695695689 	299.9999999999828 	4.900945187768872e-12 	101324.9999999933
0.8220720720720714 	299.9999999999488 	7.238126602557284e-12 	101324.9999999933
0.8245745745745739 	299.9999999999922 	5.27303742040688e-12 	101324.9999999933
0.8270770770770765 	299.9999999999703 	6.605340762872081e-12 	101324.9999999933
0.8295795795795788 	299.9999999999527 	5.563013822047983e-12 	101324.9999999933
0.8320820820820815 	300.0000000000116 	6.254953929530052e-12 	101324.9999999935
0.834584584584584 	300.0000000000047 	5.410466981732742e-12 	101324.9999999935
0.8370870870870865 	299.9999999999703 	5.534453048976019e-12 	101324.9999999936
0.8395895895895891 	299.9999999999315 	6.248779775038324e-12 	101324.9999999937
0.8420920920920915 	299.9999999999461 	6.028191239827675e-12 	101324.9999999939
0.844594594594594 	299.9999999999452 	6.684369034400096e-12 	101324.999999994
0.8470970970970964 	299.9999999999629 	6.662932723942522e-12 	101324.9999999942
0.8495995995995991 	299.9999999999895 	6.318383778574516e-12 	101324.9999999942
0.8521021021021015 	299.9999999999814 	6.424458779253267e-12 	101324.999999994
0.8546046046046039 	299.9999999999773 	5.585671861623343e-12 	101324.9999999938
0.8571071071071066 	300.0000000000003 	7.125833268052151e-12 	101324.9999999938
0.8596096096096089 	299.9999999999675 	5.818733368682661e-12 	101324.9999999942
0.8621121121121116 	299.9999999999381 	8.272879401144832e-12 	101324.9999999944
0.8646146146146139 	299.9999999999983 	6.110296567222314e-12 	101324.9999999945
0.8671171171171166 	299.999999999976 	7.67458904805484e-12 	101324.9999999946
0.8696196196196189 	299.9999999999458 	7.171897291101473e-12 	101324.9999999947
0.8721221221221216 	299.9999999999791 	7.648491252087022e-12 	101324.9999999948
0.874624624624624 	300.0000000000031 	7.495040984108788e-12 	101324.9999999951
0.8771271271271264 	299.9999999999993 	7.349084752585304e-12 	101324.9999999953
0.879629629629629 	300.0000000000043 	8.094657912776054e-12 	101324.9999999952
0.8821321321321317 	299.9999999999835 	7.257683145002649e-12 	101324.9999999953
0.8846346346346339 	299.9999999999275 	1.010848516456216e-11 	101324.9999999954
0.8871371371371364 	299.9999999999623 	8.312399108911012e-12 	101324.9999999955
0.8896396396396391 	299.9999999999645 	9.831205635017676e-12 	101324.9999999954
0.8921421421421414 	299.9999999999643 	8.342139947078369e-12 	101324.9999999955
0.8946446446446441 	299.9999999999848 	8.750489212305132e-12 	101324.9999999954
0.8971471471471464 	299.9999999999994 	8.257557220737934e-12 	101324.9999999954
0.8996496496496489 	299.9999999999833 	8.324601280674353e-12 	101324.9999999952
0.9021521521521517 	299.9999999999724 	8.821436378364881e-12 	101324.9999999952
0.9046546546546541 	299.9999999999959 	7.126035979024814e-12 	101324.9999999952
0.9071571571571564 	299.9999999999569 	7.339851519335719e-12 	101324.999999995
0.9096596596596589 	299.9999999999507 	7.277010554432838e-12 	101324.9999999949
0.9121621621621616 	300.0000000000032 	7.880436894040126e-12 	101324.999999995
0.9146646646646639 	299.9999999999777 	8.297062647617013e-12 	101324.9999999949
0.9171671671671666 	299.9999999999517 	8.461124075251328e-12 	101324.999999995
0.9196696696696689 	300.0000000000044 	9.374724117164149e-12 	101324.9999999952
0.9221721721721714 	299.9999999999968 	7.559337360517948e-12 	101324.9999999953
0.9246746746746741 	299.9999999999428 	9.861945138064274e-12 	101324.9999999954
0.9271771771771765 	299.9999999999566 	7.61362430854163e-12 	101324.9999999955
0.9296796796796791 	299.9999999999944 	9.239947071831048e-12 	101324.9999999955
0.9321821821821816 	299.9999999999719 	7.587843560398687e-12 	101324.9999999954
0.9346846846846838 	299.9999999999513 	8.443257437948706e-12 	101324.9999999954
0.9371871871871866 	300.0000000000119 	8.024523177996096e-12 	101324.9999999953
0.9396896896896891 	300.0000000000111 	8.240967815738483e-12 	101324.9999999953
0.9421921921921914 	300.0000000000072 	8.789085308475846e-12 	101324.9999999953
0.9446946946946939 	299.9999999999702 	8.046411326420306e-12 	101324.9999999955
0.9471971971971965 	299.9999999999318 	1.067375734274012e-11 	101324.9999999955
0.9496996996996991 	299.9999999999657 	9.070359949356412e-12 	101324.9999999953
0.9522022022022016 	299.9999999999812 	1.073347689008764e-11 	101324.9999999951
0.9547047047047038 	299.9999999999739 	9.72070200925459e-12 	101324.9999999949
0.9572072072072064 	299.9999999999602 	1.046055723863516e-11 	101324.9999999948
0.9597097097097093 	299.9999999999677 	1.015784829918538e-11 	101324.9999999947
0.9622122122122114 	299.9999999999648 	1.02544909934131e-11 	101324.9999999948
0.964714714714714 	299.9999999999597 	1.149059156044899e-11 	101324.9999999951
0.9672172172172167 	299.9999999999598 	1.095776434954725e-11 	101324.9999999953
0.969719719719719 	299.9999999999849 	1.185501383410398e-11 	101324.9999999954
0.9722222222222214 	299.9999999999819 	1.149783891746342e-11 	101324.9999999955
0.9747247247247239 	299.9999999999744 	1.191386338680568e-11 	101324.9999999953
0.9772272272272267 	300.0000000000036 	1.206383682561958e-11 	101324.9999999953
0.9797297297297292 	299.9999999999915 	1.179919932119341e-11 	101324.9999999954
0.9822322322322313 	299.9999999999942 	1.238736136740267e-11 	101324.9999999956
0.9847347347347344 	299.9999999999888 	1.082505690386143e-11 	101324.9999999956
0.9872372372372363 	299.9999999999503 	1.316572917638085e-11 	101324.9999999955
0.9897397397397389 	299.9999999999656 	1.087601294801272e-11 	101324.9999999955
0.9922422422422417 	299.999999999951 	1.290424039282009e-11 	101324.9999999958
0.9947447447447441 	299.9999999999702 	1.123854870477439e-11 	101324.999999996
0.9972472472472468 	299.9999999999752 	1.19144958781422e-11 	101324.9999999961
0.999749749749749 	299.9999999999693 	1.124585169821123e-11 	101324.999999996
1.002252252252252 	299.9999999999769 	1.178945929348614e-11 	101324.9999999959
1.004754754754754 	299.9999999999916 	1.172512753518208e-11 	101324.9999999959
1.007257257257256 	299.9999999999754 	1.080073447294048e-11 	101324.9999999958
1.009759759759759 	299.9999999999677 	1.306932145641435e-11 	101324.9999999956
1.012262262262261 	299.9999999999661 	1.155528148028382e-11 	101324.9999999955
1.014764764764764 	299.9999999999385 	1.355087831022626e-11 	101324.9999999955
1.017267267267267 	299.9999999999297 	1.297710694448187e-11 	101324.9999999955
1.019769769769769 	299.99999999998 	1.418541756414084e-11 	101324.9999999956
1.022272272272272 	299.9999999999915 	1.410213517684953e-11 	101324.999999996
1.024774774774774 	299.9999999999889 	1.419206050911521e-11 	101324.9999999962
1.027277277277277 	299.9999999999837 	1.48294277951513e-11 	101324.9999999964
1.029779779779779 	300.0000000000114 	1.384106117248781e-11 	101324.9999999964
1.032282282282282 	300.000000000011 	1.505890533631036e-11 	101324.9999999963
1.034784784784784 	300.0000000000019 	1.448036013578979e-11 	101324.9999999963
1.037287287287286 	299.9999999999724 	1.466924239742471e-11 	101324.9999999966
1.039789789789789 	299.9999999999727 	1.466090192561471e-11 	101324.9999999966
1.042292292292291 	300.0000000000062 	1.543018235056862e-11 	101324.9999999964
1.044794794794794 	300.0000000000262 	1.587312964211489e-11 	101324.9999999966
1.047297297297296 	300.0000000000429 	1.506223116571698e-11 	101324.9999999968
1.049799799799799 	299.9999999999967 	1.706755933929594e-11 	101324.9999999969
1.052302302302302 	299.9999999999601 	1.519924266600793e-11 	101324.9999999971
1.054804804804804 	299.9999999999396 	1.68683660980344e-11 	101324.9999999974
1.057307307307306 	299.999999999928 	1.546009515460518e-11 	101324.9999999975
1.059809809809809 	299.9999999999649 	1.641509225622536e-11 	101324.9999999974
1.062312312312312 	299.9999999999609 	1.639738474816499e-11 	101324.9999999974
1.064814814814814 	299.9999999999562 	1.782800030215745e-11 	101324.9999999974
1.067317317317317 	299.9999999999336 	1.775749855844036e-11 	101324.9999999973
1.069819819819819 	299.9999999999368 	1.73593343981108e-11 	101324.9999999972
1.072322322322321 	299.9999999999977 	1.931981598923204e-11 	101324.9999999971
1.074824824824824 	300.0000000000156 	1.731539489800739e-11 	101324.9999999971
1.077327327327327 	300.0000000000313 	1.816452109535133e-11 	101324.999999997
1.079829829829829 	300.0000000000416 	1.652523211763204e-11 	101324.9999999969
1.082332332332332 	300.0000000000098 	1.719990383624384e-11 	101324.9999999971
1.084834834834834 	299.9999999999832 	1.69616135693559e-11 	101324.9999999972
1.087337337337337 	299.9999999999468 	1.744533574261984e-11 	101324.9999999969
1.089839839839839 	299.9999999999338 	1.915213322134708e-11 	101324.9999999967
1.092342342342342 	299.9999999999706 	1.776119292165868e-11 	101324.9999999967
1.094844844844844 	299.9999999999693 	1.843206332088292e-11 	101324.9999999966
1.097347347347347 	299.9999999999421 	1.644476825538828e-11 	101324.9999999965
1.099849849849849 	299.9999999999322 	1.881442226421101e-11 	101324.9999999966
1.102352352352352 	299.9999999999584 	1.669168988112142e-11 	101324.9999999967
1.104854854854854 	299.9999999999765 	1.895791414083672e-11 	101324.9999999969
1.107357357357357 	299.9999999999609 	1.726254261842604e-11 	101324.9999999968
1.109859859859859 	299.9999999999565 	1.827242381863665e-11 	101324.9999999968
1.112362362362362 	300.0000000000178 	1.699451824380635e-11 	101324.999999997
1.114864864864865 	300.0000000000169 	1.7220002700166e-11 	101324.9999999973
1.117367367367367 	299.9999999999715 	1.818166306619926e-11 	101324.9999999976
1.119869869869869 	299.9999999999357 	1.660682769502815e-11 	101324.9999999976
1.122372372372372 	299.9999999999646 	1.816086555185004e-11 	101324.9999999975
1.124874874874874 	299.9999999999579 	1.723395493073026e-11 	101324.9999999974
1.127377377377377 	299.9999999999641 	1.869480186153603e-11 	101324.9999999974
1.129879879879879 	300.0000000000202 	1.818168596037699e-11 	101324.9999999976
1.132382382382382 	300.0000000000384 	1.871915184675781e-11 	101324.9999999977
1.134884884884884 	300.0000000000085 	1.801800847132256e-11 	101324.9999999976
1.137387387387387 	300.0000000000146 	1.764598622411082e-11 	101324.9999999978
1.139889889889889 	299.9999999999668 	1.865456614411287e-11 	101324.9999999977
1.142392392392392 	299.9999999999578 	1.739159683433707e-11 	101324.9999999975
1.144894894894894 	300.0000000000143 	1.907143430827432e-11 	101324.9999999976
1.147397397397397 	299.999999999993 	1.794505778201147e-11 	101324.9999999976
1.149899899899899 	299.9999999999379 	1.884190040323029e-11 	101324.9999999974
1.152402402402402 	299.9999999999305 	1.829915024158679e-11 	101324.9999999975
1.154904904904904 	299.9999999999651 	1.920141735142393e-11 	101324.9999999976
1.157407407407407 	299.9999999999648 	1.895128542713142e-11 	101324.9999999975
1.159909909909909 	299.9999999999399 	1.982184201548696e-11 	101324.9999999974
1.162412412412412 	299.999999999937 	2.187859852573747e-11 	101324.9999999974
1.164914914914914 	299.9999999999586 	2.086748378238408e-11 	101324.9999999975
1.167417417417417 	299.999999999964 	2.260847222276809e-11 	101324.9999999976
1.169919919919919 	300.0000000000151 	2.118868930981382e-11 	101324.9999999977
1.172422422422422 	300.0000000000424 	2.175208742287026e-11 	101324.9999999978
1.174924924924925 	299.9999999999907 	2.053119991989155e-11 	101324.9999999979
1.177427427427427 	299.9999999999593 	2.17210171005545e-11 	101324.9999999981
1.179929929929929 	300.0000000000092 	2.269687601095441e-11 	101324.9999999981
1.182432432432432 	300.0000000000379 	2.033968410758047e-11 	101324.9999999982
1.184934934934934 	300.0000000000019 	2.120346875518412e-11 	101324.9999999984
1.187437437437437 	299.9999999999701 	1.99352161115731e-11 	101324.9999999984
1.189939939939939 	299.9999999999634 	2.057200388771406e-11 	101324.9999999983
1.192442442442442 	299.9999999999371 	1.947983346474522e-11 	101324.9999999983
1.194944944944944 	299.9999999999388 	2.056713962862458e-11 	101324.9999999983
1.197447447447447 	299.9999999999932 	1.972355944827796e-11 	101324.9999999984
1.199949949949949 	300.0000000000131 	2.002354449782938e-11 	101324.9999999985
1.202452452452452 	299.9999999999612 	2.163782830799988e-11 	101324.9999999985
1.204954954954955 	299.9999999999542 	2.094124734715797e-11 	101324.9999999986
1.207457457457457 	299.9999999999798 	2.24424573366228e-11 	101324.9999999987
1.20995995995996 	299.9999999999745 	2.135206464408083e-11 	101324.9999999986
1.212462462462462 	299.9999999999895 	2.231104314088813e-11 	101324.9999999987
1.214964964964964 	299.99999999999 	2.134504462524241e-11 	101324.9999999991
1.217467467467467 	299.9999999999799 	2.240571317783735e-11 	101324.9999999992
1.219969969969969 	299.9999999999682 	2.139201423964497e-11 	101324.999999999
1.222472472472472 	300.0000000000182 	2.159902262942163e-11 	101324.999999999
1.224974974974975 	300.0000000000422 	2.197454897244537e-11 	101324.9999999992
1.227477477477477 	299.9999999999962 	2.030874192756251e-11 	101324.9999999992
1.229979979979979 	299.9999999999844 	2.186953621773514e-11 	101324.9999999992
1.232482482482482 	299.9999999999569 	2.07735878007345e-11 	101324.9999999992
1.234984984984984 	299.9999999999566 	2.224277519088373e-11 	101324.9999999994
1.237487487487487 	299.9999999999776 	2.084699538033884e-11 	101324.9999999994
1.239989989989989 	299.9999999999771 	2.15247929025843e-11 	101324.9999999995
1.242492492492492 	300.000000000006 	2.158762379688708e-11 	101324.9999999996
1.244994994994994 	299.9999999999781 	1.970650544522778e-11 	101324.9999999996
1.247497497497497 	299.9999999999891 	2.10184047981008e-11 	101324.9999999995
1.249999999999999 	300.0000000002491 	2.033600047466858e-11 	101324.9999999994
