-1.25 	299.9636912387946 	1 	101354.3892626146
-1.247497497497497 	300.0040892981616 	1.273059886343837 	101332.3525718826
-1.244994994994995 	300.0310016145954 	0.9145497641362765 	101363.5029975855
-1.242492492492492 	300.019013907473 	1.070355374798956 	101347.8411286355
-1.23998998998999 	300.0230027006565 	1.098014972001593 	101352.243289598
-1.237487487487487 	300.0261263901427 	1.069216387545306 	101355.7813019937
-1.234984984984985 	300.0262162570078 	1.064438284865455 	101356.0783048097
-1.232482482482482 	300.0246343481996 	1.079783493959737 	101354.1005949171
-1.22997997997998 	300.02154201011 	1.05632824527157 	101350.4946063179
-1.227477477477477 	300.0179830029831 	1.05554542262881 	101346.2513797317
-1.224974974974975 	300.0150422428077 	1.044120562038988 	101342.7860057649
-1.222472472472472 	300.0131141252871 	1.037591171793021 	101340.5051293038
-1.21996996996997 	300.011724731814 	1.03391805853112 	101338.8614740458
-1.217467467467467 	300.0102545256565 	1.029608943728602 	101337.1237251401
-1.214964964964965 	300.0083793843365 	1.024081815377508 	101334.9069382196
-1.212462462462462 	300.0060055150022 	1.017228214739068 	101332.1004186541
-1.20995995995996 	300.0031905187573 	1.009100513335156 	101328.7724829196
-1.207457457457457 	299.9999836809504 	0.9997707761543572 	101324.9812729854
-1.204954954954955 	299.9963118472388 	0.989198734929597 	101320.6404768284
-1.202452452452452 	299.9923864522212 	0.9781244978465427 	101316.0002246695
-1.19994994994995 	299.9889882461997 	0.9685736480012197 	101311.9831047407
-1.197447447447447 	299.9868699589539 	0.9624137960142596 	101309.4787868759
-1.194944944944945 	299.9859623722279 	0.9594378431584869 	101308.405833903
-1.192442442442442 	299.9853489559584 	0.9572520273193845 	101307.6807101832
-1.18993993993994 	299.9839484354668 	0.9530084679462696 	101306.0251238534
-1.187437437437437 	299.981278589588 	0.9454625105271236 	101302.8694425233
-1.184934934934935 	299.9778549920303 	0.9360252929928872 	101298.8231187296
-1.182432432432432 	299.974952921823 	0.9280712365827943 	101295.3929564613
-1.17992992992993 	299.9737642327276 	0.9247556138777935 	101293.9882947429
-1.177427427427427 	299.9746212561015 	0.9270229673953034 	101295.0017160564
-1.174924924924925 	299.9769432109412 	0.9333866622628664 	101297.7455838004
-1.172422422422422 	299.9797540832687 	0.9412362297647541 	101301.0672177664
-1.16991991991992 	299.9822648468753 	0.9484230664819671 	101304.0349342471
-1.167417417417417 	299.9842306752288 	0.9542113656310003 	101306.3588592763
-1.164914914914915 	299.9858761392863 	0.9590735549030769 	101308.3037780258
-1.162412412412412 	299.9874502724743 	0.9636444860613084 	101310.1642820778
-1.15990990990991 	299.9890080323577 	0.968200696354343 	101312.0058853097
-1.157407407407407 	299.9906849588273 	0.9732135031530869 	101313.9882084443
-1.154904904904904 	299.9928882712338 	0.9797523672810456 	101316.592357647
-1.152402402402403 	299.9960212896569 	0.9888326206380247 	101320.2960087988
-1.1498998998999 	300.0000818568091 	1.000392265327106 	101325.096456401
-1.147397397397397 	300.0045152667942 	1.012900150827704 	101330.337475724
-1.144894894894895 	300.0084272812582 	1.023958710274495 	101334.9625550792
-1.142392392392392 	300.0110976127067 	1.031672230890607 	101338.1200147366
-1.13988988988989 	300.0124766894406 	1.035921225494266 	101339.7504347378
-1.137387387387387 	300.0132466040475 	1.038516392823777 	101340.6606006877
-1.134884884884885 	300.0143825490707 	1.042055827793306 	101342.0039060969
-1.132382382382382 	300.0165429944761 	1.048283781324024 	101344.5581417875
-1.12987987987988 	300.0196377329353 	1.056934664146678 	101348.2169976884
-1.127377377377377 	300.0228278093342 	1.065772012395361 	101351.9892137449
-1.124874874874875 	300.0250422212447 	1.071957038861065 	101354.6076552166
-1.122372372372372 	300.0256702559348 	1.073823839678296 	101355.349625907
-1.11986986986987 	300.0248342675656 	1.071607748936833 	101354.3612025533
-1.117367367367367 	300.023080124339 	1.06671380228851 	101352.2877408094
-1.114864864864865 	300.020917745997 	1.060555078471267 	101349.7312563464
-1.112362362362362 	300.0186471094523 	1.054044646602478 	101347.0464957902
-1.10985985985986 	300.0164630953124 	1.0477933290786 	101344.4640769555
-1.107357357357357 	300.014568124722 	1.042354177110707 	101342.2236673935
-1.104854854854855 	300.0130804843157 	1.037971622327423 	101340.4647272671
-1.102352352352353 	300.0117896337923 	1.03401110264198 	101338.9384277416
-1.09984984984985 	300.0101064990368 	1.028904661562096 	101336.9487271644
-1.097347347347347 	300.0074284486785 	1.021101727719494 	101333.782517134
-1.094844844844845 	300.0036496793145 	1.010372177861478 	101329.3150740506
-1.092342342342342 	299.9993572262987 	0.9983038751657 	101324.2406657453
-1.08983983983984 	299.9955278373099 	0.9874963340511325 	101319.7134000794
-1.087337337337337 	299.9929153061499 	0.9799341051909687 	101316.6249842435
-1.084834834834835 	299.9915251171111 	0.9756133472675381 	101314.9816363325
-1.082332332332332 	299.9905741045061 	0.9724709127229758 	101313.857306919
-1.07982982982983 	299.9890367571858 	0.9678138329141257 	101312.0402265333
-1.077327327327327 	299.9863743309751 	0.9602088519888927 	101308.8931029651
-1.074824824824825 	299.9828726825909 	0.9503833741501855 	101304.7540130891
-1.072322322322323 	299.9793795722769 	0.9405744641530944 	101300.6251285906
-1.06981981981982 	299.9767283897286 	0.9330427257105659 	101297.491342324
-1.067317317317317 	299.9753278193589 	0.9289746576581732 	101295.8359014245
-1.064814814814815 	299.9751576395009 	0.9284072087343711 	101295.6352234647
-1.062312312312312 	299.97601060482 	0.9307940987379963 	101296.6432644243
-1.05980980980981 	299.9776436205801 	0.9354143880462059 	101298.5728987257
-1.057307307307307 	299.9797452484116 	0.9413495620065809 	101301.0567964556
-1.054804804804805 	299.9818968104142 	0.9474269337792907 	101303.6000484581
-1.052302302302302 	299.9836802580272 	0.952516609708459 	101305.7081567617
-1.0497997997998 	299.9848955444699 	0.9561090246314973 	101307.1446421062
-1.047297297297297 	299.9857440275618 	0.9587895287143263 	101308.1476674215
-1.044794794794795 	299.9868244652396 	0.9621881009653162 	101309.4246604273
-1.042292292292292 	299.9888473867568 	0.96818796479311 	101311.8157559251
-1.03978978978979 	299.9921697450222 	0.9776959506511623 	101315.7430644692
-1.037287287287287 	299.9964672543961 	0.9898130338734947 	101320.8231761075
-1.034784784784785 	300.0008497755211 	1.002162830163109 	101326.0041760115
-1.032282282282283 	300.00439657295 	1.012296120941351 	101330.1974333043
-1.02977977977978 	300.0067320631193 	1.019198435820846 	101332.9585251289
-1.027277277277277 	300.0082180348485 	1.023795794315426 	101334.7154201414
-1.024774774774775 	300.009630430919 	1.02812373585409 	101336.3852755684
-1.022272272272272 	300.0116018201621 	1.033884925814802 	101338.7158893507
-1.01976976976977 	300.0142748359971 	1.04151615511301 	101341.8762606851
-1.017267267267267 	300.0173543131858 	1.050264863055492 	101345.5172229609
-1.014764764764765 	300.0203736132957 	1.058852578146919 	101349.0871984994
-1.012262262262262 	300.0228931350449 	1.06601827074294 	101352.0664024305
-1.00975975975976 	300.024545668096 	1.070701374017451 	101354.0204409573
-1.007257257257257 	300.0250549892564 	1.072138943620732 	101354.6221945056
-1.004754754754755 	300.024336622799 	1.070142732957305 	101353.7725678575
-1.002252252252252 	300.0226354001306 	1.065427779949896 	101351.7615923538
-0.9997497497497498 	300.0205284092546 	1.059574697404494 	101349.2706913872
-0.9972472472472473 	300.0186836593639 	1.054373263742737 	101347.0894570016
-0.9947447447447449 	300.0174757569445 	1.050801550882759 	101345.6611977048
-0.9922422422422421 	300.0167051707498 	1.048305199842074 	101344.7501248077
-0.9897397397397399 	300.0156690568841 	1.045019732200487 	101343.5250153085
-0.9872372372372376 	300.0136216628989 	1.038999988076709 	101341.1044390557
-0.9847347347347346 	300.0103384624907 	1.029680206516576 	101337.2228093828
-0.9822322322322323 	300.0063329959522 	1.018421087175239 	101332.4873075668
-0.9797297297297296 	300.0025216927729 	1.007644405717714 	101327.9813723372
-0.9772272272272275 	299.9996102816281 	0.9992409259428787 	101324.5393517347
-0.9747247247247248 	299.9976844407354 	0.993476810971599 	101322.2626840897
-0.9722222222222224 	299.9962529590766 	0.9890721395592921 	101320.5704276576
-0.9697197197197196 	299.9946270531972 	0.9841875479987325 	101318.6483770391
-0.9672172172172175 	299.992337192063 	0.9775381880960834 	101315.9415806125
-0.9647147147147147 	299.9893365654762 	0.9689569103127722 	101312.3945471388
-0.9622122122122124 	299.9859219045158 	0.9592163026554043 	101308.3581766954
-0.9597097097097099 	299.9825060169728 	0.9494528954478338 	101304.3205188939
-0.9572072072072073 	299.979458364971 	0.9407391140374411 	101300.7180791585
-0.9547047047047047 	299.977102296208 	0.9340313925335098 	101297.9331494139
-0.9522022022022023 	299.9757562874209 	0.9302258841334219 	101296.3422700586
-0.9496996996996998 	299.9756586011364 	0.9299389370138175 	101296.227446015
-0.9471971971971973 	299.9767747753326 	0.9330093796761885 	101297.5464278176
-0.9446946946946947 	299.9786544511421 	0.9381786725162794 	101299.7676448151
-0.9421921921921923 	299.98055814659 	0.9434538175968877 	101302.0176467113
-0.93968968968969 	299.9818500162664 	0.9471484630219762 	101303.5446734414
-0.9371871871871872 	299.9824070531078 	0.948948719931329 	101304.2032647578
-0.9346846846846848 	299.9827259638253 	0.950173811904965 	101304.5803895987
-0.9321821821821823 	299.9836046690656 	0.95293868916477 	101305.619259225
-0.9296796796796799 	299.9856222808691 	0.9587901455733163 	101308.0038207244
-0.9271771771771771 	299.9887960354266 	0.9678003284110148 	101311.7549848292
-0.9246746746746748 	299.9926352497441 	0.9786758439760306 	101316.2932884306
-0.9221721721721724 	299.9964757328561 	0.9896171338087902 	101320.8333677667
-0.9196696696696698 	299.9998148615026 	0.9992243626820556 	101324.7808154193
-0.9171671671671672 	300.0024694473304 	1.006959577130921 	101327.9191255746
-0.9146646646646649 	300.0045601309467 	1.013134093547631 	101330.3908611277
-0.9121621621621623 	300.0064082504693 	1.01863260317386 	101332.5757716534
-0.9096596596596597 	300.0084079100408 	1.024547190156357 	101334.93987145
-0.9071571571571573 	300.0108870896553 	1.031772936237938 	101337.8709324424
-0.9046546546546547 	300.0139577628231 	1.040589230296574 	101341.5013394914
-0.9021521521521524 	300.0173988555631 	1.050357115497506 	101345.5699481912
-0.8996496496496498 	300.0206656745614 	1.059569994875325 	101349.4326598649
-0.8971471471471473 	300.0230863135707 	1.066402670478227 	101352.2948879415
-0.894644644644645 	300.0241877601309 	1.069589425196299 	101353.5972030346
-0.892142142142142 	300.0239712440537 	1.06914560241476 	101353.3406698178
-0.8896396396396397 	300.0229375019356 	1.066421566413036 	101352.1188019511
-0.8871371371371374 	300.0218085759333 	1.063337910962335 	101350.7843947717
-0.8846346346346349 	300.0210787725773 	1.061204234250524 	101349.9214219327
-0.8821321321321324 	300.0206956498777 	1.059883625742842 	101349.4683375374
-0.8796296296296297 	300.0201016201403 	1.057909047422976 	101348.7657073053
-0.8771271271271271 	300.018630536217 	1.053539982623175 	101347.0264374545
-0.8746246246246248 	300.0160047788697 	1.046059193284833 	101343.9221448145
-0.8721221221221224 	300.0125623138888 	1.0363622865252 	101339.8521561166
-0.8696196196196196 	300.0090375499082 	1.026393537591451 	101335.6847969008
-0.8671171171171175 	300.0060788576766 	1.017893650600522 	101332.1867495131
-0.8646146146146148 	300.0038827994563 	1.011430390039375 	101329.5904093062
-0.8621121121121121 	300.0021851949223 	1.006344169275151 	101327.583526436
-0.8596096096096097 	300.0005363336105 	1.001439736981167 	101325.6341728586
-0.857107107107107 	299.9985873151771 	0.9957416817572701 	101323.3301259251
-0.8546046046046049 	299.99618926297 	0.9887891928820433 	101320.4953479621
-0.8521021021021022 	299.9933227098944 	0.9804937739631645 	101317.1066495791
-0.8495995995995997 	299.990017125764 	0.9709524516112225 	101313.1991339147
-0.8470970970970974 	299.9863791291131 	0.9605136446758091 	101308.8988171018
-0.8445945945945946 	299.9826919196848 	0.9500114287861667 	101304.5402916225
-0.8420920920920922 	299.9794458896429 	0.9408175565512499 	101300.7034371706
-0.8395895895895897 	299.977202600097 	0.9344603874471777 	101298.0518221237
-0.8370870870870872 	299.9763320046487 	0.9319272749665418 	101297.0230116486
-0.8345845845845846 	299.9767902446992 	0.9330806885792637 	101297.5650267921
-0.8320820820820823 	299.97809857857 	0.9366116688400377 	101299.1108935975
-0.8295795795795798 	299.9795598239032 	0.9406335841593043 	101300.8377716292
-0.8270770770770772 	299.9806067936969 	0.9436042991496367 	101302.0753476816
-0.8245745745745746 	299.9810709597659 	0.9450552155178226 	101302.6240382384
-0.8220720720720721 	299.9812365703996 	0.9457456360170443 	101302.8199195676
-0.8195695695695699 	299.9816676427467 	0.9471994213247635 	101303.3297471834
-0.817067067067067 	299.9829106459937 	0.9508965564806914 	101304.798749232
-0.8145645645645651 	299.9852206225804 	0.9575316183979282 	101307.5288227197
-0.8120620620620621 	299.9884412193618 	0.9666794388173815 	101311.3356102229
-0.8095595595595597 	299.992079079133 	0.9769954007649629 	101315.6359278913
-0.8070570570570572 	299.9955329853619 	0.9868424148297399 	101319.7189343822
-0.8045545545545546 	299.9983766726484 	0.9950634387606846 	101323.0806812783
-0.8020520520520523 	300.0005664627827 	1.001539908402895 	101325.6694945937
-0.7995495495495494 	300.0024587820149 	1.00722632912223 	101327.9065662217
-0.7970470470470474 	300.0045995464299 	1.013578441355597 	101330.4373928494
-0.7945445445445446 	300.0073877630526 	1.021653366206307 	101333.7337162785
-0.7920420420420423 	300.0108141663488 	1.031418989171581 	101337.7846188178
-0.7895395395395397 	300.0144492906788 	1.041725322302635 	101342.0825639344
-0.7870370370370371 	300.0176932050463 	1.050960459370011 	101345.9180302176
-0.7845345345345348 	300.0201115162806 	1.057941670368675 	101348.7774923764
-0.7820320320320323 	300.0216366965217 	1.062455071015454 	101350.5809429445
-0.7795295295295296 	300.022520371634 	1.065141583873704 	101351.6258341899
-0.7770270270270272 	300.0230999813687 	1.06688663830224 	101352.3112121321
-0.7745245245245247 	300.0235530200832 	1.068164229968213 	101352.8468880093
-0.7720220220220222 	300.0237887759287 	1.068737303194147 	101353.12551355
-0.7695195195195199 	300.0235173213716 	1.067833619834721 	101352.8039924185
-0.767017017017017 	300.0224324330134 	1.064644088245225 	101351.5215587244
-0.7645145145145147 	300.0204140594818 	1.05886043855755 	101349.1355447149
-0.7620120120120122 	300.0176373299659 	1.050978129058426 	101345.8525180957
-0.7595095095095097 	300.0145422146522 	1.042211868887417 	101342.19299651
-0.7570070070070072 	300.0116700909232 	1.034045122196976 	101338.7971949755
-0.7545045045045048 	300.0094338712067 	1.027603576241934 	101336.1532441335
-0.7520020020020022 	300.0079292907773 	1.02314495298945 	101334.3743573406
-0.7494994994994997 	300.00688427765 	1.019925824100548 	101333.1388839689
-0.7469969969969972 	300.005780419994 	1.016531466481508 	101331.8338604118
-0.7444944944944945 	300.0040879111383 	1.011512839557523 	101329.8330015776
-0.7419919919919924 	300.0014967916256 	1.004016342765659 	101326.7698032576
-0.7394894894894897 	299.9980362533012 	0.9941127894272861 	101322.6788225538
-0.7369869869869872 	299.994037080125 	0.98270153332987 	101317.9512453754
-0.7344844844844846 	299.9899732489145 	0.9710862359284574 	101313.147285506
-0.7319819819819822 	299.9862754868695 	0.9604701867122893 	101308.7762227458
-0.7294794794794797 	299.9832094506717 	0.9516162649062336 	101305.1519836625
-0.7269769769769773 	299.9808562733958 	0.9447835698655994 	101302.370388526
-0.7244744744744747 	299.9791764995076 	0.9398921924920164 	101300.384895115
-0.721971971971972 	299.97810173877 	0.9367660583006543 	101299.1144579193
-0.7194694694694695 	299.977594789323 	0.9352985026104814 	101298.5152737528
-0.7169669669669674 	299.9776524122688 	0.9354644324202009 	101298.5837399428
-0.7144644644644647 	299.9782633585658 	0.9372086271696837 	101299.3056155948
-0.711961961961962 	299.979354038085 	0.9403137183308523 	101300.5945395018
-0.7094594594594597 	299.9807750765285 	0.9443607364297514 	101302.2741008296
-0.7069569569569573 	299.9823371139968 	0.948827257843596 	101304.1204495299
-0.7044544544544545 	299.9838811021634 	0.9532777860740282 	101305.9455033669
-0.7019519519519523 	299.9853463632456 	0.9575470237894765 	101307.6774737979
-0.6994494494494495 	299.9867987595089 	0.961815704026507 	101309.3943125999
-0.6969469469469471 	299.9884028405288 	0.9665334115008 	101311.2903975945
-0.6944444444444446 	299.9903488960407 	0.9722205421984724 	101313.5907570402
-0.6919419419419421 	299.9927692186097 	0.9792386387736546 	101316.4518186551
-0.6894394394394396 	299.9956795728518 	0.9876294798926928 	101319.8921741007
-0.6869369369369374 	299.9989693526745 	0.9970877484731406 	101323.7812448472
-0.6844344344344344 	300.002442050559 	1.007069412835102 	101327.8866521434
-0.6819319319319321 	300.0058836542583 	1.016978900073507 	101331.9554287309
-0.6794294294294296 	300.0091285762406 	1.026350235346632 	101335.7918528602
-0.6769269269269272 	300.0120968140946 	1.034950462983651 	101339.3011825703
-0.6744244244244245 	300.0147913382291 	1.042775526391965 	101342.4870275583
-0.6719219219219222 	300.0172634632062 	1.049955676635708 	101345.4099683259
-0.6694194194194195 	300.0195632211378 	1.056620170501636 	101348.1291327063
-0.6669169169169172 	300.021696761979 	1.062779603050462 	101350.6518885974
-0.6644144144144146 	300.0236063827082 	1.068269003103999 	101352.9098490905
-0.661911911911912 	300.0251770227493 	1.072765917968311 	101354.7670755148
-0.6594094094094097 	300.0262654082123 	1.075869433926941 	101356.0541023212
-0.656906906906907 	300.0267389640846 	1.077208000276322 	101356.6139242282
-0.6544044044044046 	300.0265112447397 	1.076539048866081 	101356.3441682092
-0.6519019019019021 	300.0255636212138 	1.073816064996308 	101355.2241227564
-0.6493993993993996 	300.0239575624554 	1.069209213992504 	101353.3254231382
-0.6468968968968971 	300.0218188888702 	1.063073998998171 	101350.7966933056
-0.6443943943943946 	300.019314840169 	1.055885834261488 	101347.835941396
-0.6418918918918921 	300.0166278945475 	1.048164210304132 	101344.6589856045
-0.6393893893893897 	300.0139304162911 	1.040401615504819 	101341.469633845
-0.6368868868868871 	300.0113658534033 	1.033009936992447 	101338.4374892351
-0.6343843843843846 	300.0090385155553 	1.026290560639812 	101335.6858686267
-0.6318818818818821 	300.0070113004726 	1.020427072565498 	101333.2891208006
-0.6293793793793795 	300.0053094764657 	1.015495381459058 	101331.2771039617
-0.6268768768768773 	300.0039281949179 	1.011484682093171 	101329.6440708794
-0.6243743743743745 	300.0028415309686 	1.008322928029749 	101328.3593223368
-0.6218718718718721 	300.0020111144556 	1.005901749746837 	101327.3775445023
-0.6193693693693696 	300.0013935644976 	1.00409755696357 	101326.647501029
-0.6168668668668671 	300.0009460634656 	1.002787313263181 	101326.1184679113
-0.6143643643643645 	300.0006296276128 	1.001858771267744 	101325.7443673688
-0.6118618618618621 	300.0004110202676 	1.001215888117398 	101325.4859225591
-0.6093593593593596 	300.0002633261946 	1.000780589190145 	101325.311313693
-0.6068568568568571 	300.0001656524571 	1.000492076929495 	101325.1958405307
-0.6043543543543546 	300.0001023725692 	1.000304742196259 	101325.1210288438
-0.6018518518518521 	300.000062179603 	1.000185488523608 	101325.0735112664
-0.5993493493493496 	300.0000371344578 	1.000111012374048 	101325.0439019316
-0.5968468468468471 	300.0000218145893 	1.000065353794496 	101325.0257901629
-0.5943443443443446 	300.0000126102615 	1.000037860040132 	101325.0149084236
-0.591841841841842 	300.0000071756822 	1.000021590318925 	101325.0084834778
-0.5893393393393397 	300.0000040208333 	1.000012124211132 	101325.0047536795
-0.5868368368368371 	300.0000022193684 	1.000006706652149 	101325.0026238656
-0.5843343343343346 	300.000001207102 	1.000003655543811 	101325.0014270663
-0.5818318318318321 	300.0000006471164 	1.000001963889084 	101325.0007650086
-0.5793293293293297 	300.0000003419861 	1.000001040228427 	101325.0004043253
-0.5768268268268271 	300.0000001782478 	1.000000543384991 	101325.0002107443
-0.5743243243243245 	300.0000000916587 	1.000000280003867 	101325.0001083556
-0.5718218218218221 	300.0000000464995 	1.000000142365952 	101325.0000549692
-0.5693193193193196 	300.0000000233026 	1.000000071441157 	101325.0000275202
-0.5668168168168171 	300.0000000115194 	1.000000035392116 	101325.0000135996
-0.5643143143143147 	300.000000005568 	1.000000017313844 	101325.0000066336
-0.5618118118118121 	300.0000000026955 	1.000000008372006 	101325.0000031939
-0.5593093093093094 	300.0000000013014 	1.000000003994236 	101325.0000015177
-0.5568068068068072 	300.0000000006154 	1.000000001884182 	101325.0000007109
-0.5543043043043046 	300.0000000002892 	1.00000000088178 	101325.0000003273
-0.551801801801802 	300.0000000000826 	1.000000000408878 	101325.0000001467
-0.5492992992992995 	300.0000000000354 	1.000000000188593 	101325.0000000625
-0.5467967967967969 	300.0000000000305 	1.000000000088204 	101325.0000000239
-0.5442942942942947 	300.0000000000231 	1.000000000042546 	101325.0000000066
-0.5417917917917919 	299.9999999999623 	1.000000000021346 	101324.9999999992
-0.5392892892892895 	299.9999999999475 	1.000000000011179 	101324.9999999958
-0.536786786786787 	299.9999999999501 	1.000000000006785 	101324.9999999938
-0.5342842842842846 	299.9999999999485 	1.000000000005187 	101324.9999999929
-0.531781781781782 	299.9999999999196 	1.000000000004315 	101324.9999999926
-0.5292792792792794 	299.9999999999185 	1.000000000003773 	101324.9999999921
-0.526776776776777 	299.9999999999338 	1.000000000002875 	101324.9999999925
-0.5242742742742745 	299.999999999951 	1.000000000001756 	101324.9999999928
-0.521771771771772 	299.9999999999829 	1.000000000012256 	101324.999999993
-0.5192692692692695 	299.9999999999751 	0.9999999999988536 	101324.9999999932
-0.516766766766767 	299.9999999999938 	1.000000000004923 	101324.9999999932
-0.5142642642642645 	299.999999999953 	1.000000000002179 	101324.9999999928
-0.511761761761762 	299.9999999999665 	1.0000000000069 	101324.9999999924
-0.5092592592592596 	299.9999999999969 	1.000000000000159 	101324.999999992
-0.506756756756757 	299.9999999999699 	1.000000000000441 	101324.9999999923
-0.5042542542542544 	299.9999999999977 	1.000000000003013 	101324.9999999924
-0.5017517517517521 	300.0000000000211 	1.000000000004633 	101324.9999999925
-0.4992492492492494 	300.0000000000238 	1.000000000005108 	101324.9999999922
-0.496746746746747 	300.000000000008 	1.000000000005079 	101324.9999999919
-0.4942442442442445 	299.9999999999541 	1.000000000004555 	101324.999999992
-0.4917417417417421 	299.9999999999454 	1.000000000004544 	101324.9999999923
-0.4892392392392395 	299.9999999999515 	1.000000000005226 	101324.9999999927
-0.486736736736737 	299.9999999999599 	1.0000000000058 	101324.9999999928
-0.4842342342342345 	299.9999999999492 	1.000000000004863 	101324.9999999929
-0.481731731731732 	300.0000000000132 	1.000000000003979 	101324.9999999928
-0.4792292292292296 	300.0000000000287 	1.00000000000301 	101324.9999999927
-0.4767267267267268 	299.9999999999711 	1.000000000012514 	101324.9999999928
-0.4742242242242246 	299.9999999999779 	0.9999999999967314 	101324.9999999926
-0.471721721721722 	299.9999999999462 	0.9999999999964829 	101324.9999999923
-0.4692192192192195 	299.9999999999508 	1.000000000002068 	101324.9999999922
-0.4667167167167169 	299.9999999999318 	1.000000000003192 	101324.999999992
-0.4642142142142145 	299.9999999999936 	1.000000000003299 	101324.9999999921
-0.461711711711712 	300.00000000001 	1.000000000004087 	101324.9999999919
-0.4592092092092094 	299.9999999999964 	1.000000000004398 	101324.9999999916
-0.456706706706707 	300.0000000000265 	1.00000000000385 	101324.9999999912
-0.4542042042042045 	299.9999999999733 	1.000000000002787 	101324.9999999908
-0.451701701701702 	299.9999999999665 	1.000000000001594 	101324.9999999911
-0.4491991991991995 	299.999999999949 	1.00000000000132 	101324.9999999912
-0.4466966966966969 	299.9999999999462 	1.000000000001541 	101324.9999999914
-0.4441941941941945 	299.999999999965 	1.000000000002453 	101324.9999999916
-0.441691691691692 	299.9999999999444 	1.000000000003602 	101324.9999999917
-0.4391891891891895 	299.9999999999641 	1.000000000002085 	101324.9999999917
-0.436686686686687 	299.99999999996 	1.00000000001151 	101324.9999999914
-0.4341841841841846 	299.9999999999723 	0.9999999999970294 	101324.999999992
-0.431681681681682 	299.999999999958 	0.9999999999987395 	101324.999999992
-0.4291791791791794 	299.9999999999475 	1.000000000004853 	101324.9999999919
-0.426676676676677 	299.9999999999306 	1.000000000004986 	101324.9999999917
-0.4241741741741744 	299.9999999999525 	1.000000000003366 	101324.9999999918
-0.421671671671672 	300.0000000000007 	1.000000000002866 	101324.9999999917
-0.4191691691691694 	300.0000000000218 	1.000000000002202 	101324.9999999919
-0.4166666666666669 	300.0000000000326 	1.000000000001726 	101324.9999999922
-0.4141641641641645 	299.9999999999745 	1.000000000001325 	101324.9999999923
-0.411661661661662 	299.9999999999848 	1.000000000001793 	101324.999999992
-0.4091591591591594 	299.9999999999887 	1.000000000002829 	101324.9999999917
-0.406656656656657 	299.999999999947 	1.000000000002834 	101324.999999991
-0.4041541541541545 	299.9999999999854 	1.000000000001879 	101324.9999999904
-0.401651651651652 	299.9999999999508 	1.000000000001858 	101324.9999999903
-0.3991491491491494 	299.9999999999777 	1.000000000000812 	101324.9999999905
-0.396646646646647 	299.9999999999666 	1.000000000011111 	101324.9999999909
-0.3941441441441444 	299.9999999999965 	0.9999999999957289 	101324.9999999908
-0.3916416416416419 	299.9999999999683 	0.9999999999975741 	101324.9999999912
-0.3891391391391395 	299.9999999999735 	1.000000000003031 	101324.9999999918
-0.3866366366366368 	299.9999999999837 	1.00000000000364 	101324.9999999917
-0.3841341341341344 	299.9999999999986 	1.000000000003387 	101324.9999999917
-0.381631631631632 	299.9999999999534 	1.000000000002904 	101324.9999999918
-0.3791291291291294 	299.9999999999789 	1.000000000002182 	101324.9999999919
-0.3766266266266269 	299.9999999999965 	1.000000000001958 	101324.999999992
-0.3741241241241244 	300.0000000000172 	1.000000000002249 	101324.9999999923
-0.371621621621622 	300.0000000000043 	1.000000000001691 	101324.9999999922
-0.3691191191191194 	300.0000000000147 	1.000000000013267 	101324.9999999922
-0.366616616616617 	300.0000000000156 	0.9999999999967705 	101324.9999999919
-0.3641141141141143 	299.9999999999638 	0.9999999999987104 	101324.999999992
-0.3616116116116119 	299.9999999999636 	1.000000000004388 	101324.9999999919
-0.3591091091091095 	299.9999999999924 	1.000000000004498 	101324.9999999915
-0.356606606606607 	299.9999999999808 	1.000000000003521 	101324.999999992
-0.3541041041041044 	299.9999999999966 	1.000000000003516 	101324.9999999922
-0.3516016016016019 	300.0000000000125 	1.000000000003498 	101324.9999999921
-0.3490990990990994 	300.0000000000086 	1.000000000003364 	101324.9999999917
-0.346596596596597 	300.000000000031 	1.000000000009328 	101324.9999999913
-0.3440940940940944 	300.000000000035 	1.000000000001632 	101324.9999999914
-0.3415915915915919 	300.0000000000255 	1.000000000002955 	101324.9999999922
-0.3390890890890895 	299.9999999999861 	1.000000000006036 	101324.9999999925
-0.3365865865865869 	300.0000000000034 	1.000000000006592 	101324.9999999924
-0.3340840840840844 	299.9999999999969 	1.00000000000642 	101324.9999999921
-0.3315815815815819 	300.0000000000164 	1.000000000005675 	101324.9999999921
-0.3290790790790794 	300.0000000000193 	1.000000000004402 	101324.9999999918
-0.3265765765765769 	299.9999999999546 	1.000000000003717 	101324.9999999918
-0.3240740740740744 	299.9999999999887 	1.000000000002999 	101324.999999992
-0.3215715715715718 	299.9999999999994 	1.000000000002468 	101324.9999999918
-0.3190690690690695 	299.9999999999533 	1.000000000003115 	101324.9999999913
-0.3165665665665668 	299.9999999999894 	1.000000000003212 	101324.9999999911
-0.3140640640640644 	299.9999999999978 	1.000000000002562 	101324.9999999913
-0.311561561561562 	299.9999999999567 	1.000000000002077 	101324.9999999913
-0.3090590590590593 	299.9999999999923 	1.000000000001877 	101324.9999999913
-0.3065565565565568 	299.9999999999993 	1.000000000014537 	101324.9999999913
-0.3040540540540545 	299.9999999999924 	0.9999999999984378 	101324.9999999911
-0.3015515515515518 	300.0000000000115 	1.000000000000644 	101324.9999999911
-0.2990490490490494 	299.9999999999635 	1.000000000005294 	101324.9999999916
-0.2965465465465469 	299.9999999999844 	1.000000000005011 	101324.9999999922
-0.2940440440440444 	300.0000000000091 	1.000000000004498 	101324.9999999921
-0.2915415415415418 	300.0000000000131 	1.000000000005414 	101324.9999999919
-0.2890390390390395 	300.0000000000131 	1.000000000004959 	101324.9999999915
-0.2865365365365368 	299.9999999999847 	1.000000000003398 	101324.9999999913
-0.2840340340340343 	299.9999999999919 	1.000000000008612 	101324.9999999918
-0.2815315315315318 	299.9999999999725 	1.000000000001055 	101324.9999999926
-0.2790290290290295 	299.9999999999551 	1.000000000003486 	101324.9999999929
-0.2765265265265269 	299.999999999992 	1.000000000006369 	101324.9999999927
-0.2740240240240244 	300.0000000000217 	1.000000000005899 	101324.9999999921
-0.2715215215215219 	300.0000000000241 	1.000000000005685 	101324.9999999916
-0.2690190190190194 	299.9999999999659 	1.000000000005233 	101324.9999999915
-0.2665165165165169 	299.999999999981 	1.00000000000335 	101324.9999999915
-0.2640140140140144 	299.9999999999695 	1.000000000001862 	101324.9999999917
-0.2615115115115119 	299.9999999999905 	1.000000000008301 	101324.999999992
-0.2590090090090094 	299.999999999947 	1.000000000000405 	101324.9999999924
-0.2565065065065068 	299.9999999999853 	1.000000000001849 	101324.9999999923
-0.2540040040040044 	300.0000000000012 	1.000000000003912 	101324.9999999924
-0.2515015015015019 	300.0000000000304 	1.000000000004197 	101324.999999992
-0.2489989989989994 	300.0000000000373 	1.000000000004463 	101324.9999999922
-0.2464964964964968 	300.0000000000014 	1.00000000000478 	101324.9999999922
-0.2439939939939944 	299.9999999999972 	1.00000000001006 	101324.999999992
-0.2414914914914919 	299.9999999999736 	1.000000000000227 	101324.9999999916
-0.2389889889889893 	299.9999999999812 	1.000000000001606 	101324.9999999917
-0.2364864864864869 	300.0000000000127 	1.000000000004384 	101324.9999999916
-0.2339839839839843 	299.9999999999599 	1.000000000011902 	101324.9999999916
-0.2314814814814819 	299.9999999999737 	1.000000000003571 	101324.9999999919
-0.2289789789789792 	299.9999999999387 	1.000000000004557 	101324.9999999923
-0.2264764764764769 	299.9999999999418 	1.000000000005643 	101324.9999999916
-0.2239739739739743 	299.9999999999584 	1.000000000004213 	101324.9999999913
-0.2214714714714718 	299.9999999999422 	1.00000000000415 	101324.9999999913
-0.2189689689689693 	299.99999999995 	1.000000000003775 	101324.9999999914
-0.2164664664664669 	299.9999999999766 	1.000000000010217 	101324.9999999913
-0.2139639639639643 	299.9999999999445 	1.000000000001552 	101324.9999999923
-0.2114614614614618 	299.9999999999583 	1.000000000002698 	101324.9999999927
-0.2089589589589593 	299.9999999999961 	1.00000000000316 	101324.9999999928
-0.2064564564564568 	299.9999999999979 	1.000000000001142 	101324.9999999926
-0.2039539539539543 	299.9999999999285 	1.000000000000357 	101324.9999999923
-0.2014514514514518 	299.9999999999429 	1.000000000000404 	101324.9999999924
-0.1989489489489494 	299.9999999999691 	1.000000000007143 	101324.9999999923
-0.1964464464464468 	299.9999999999962 	0.9999999999983827 	101324.9999999923
-0.1939439439439443 	299.9999999999955 	1.000000000000261 	101324.9999999925
-0.1914414414414418 	299.9999999999484 	1.000000000003003 	101324.9999999932
-0.1889389389389393 	299.9999999999842 	1.000000000002827 	101324.9999999932
-0.1864364364364368 	300.0000000000276 	1.000000000002757 	101324.9999999927
-0.1839339339339343 	299.9999999999889 	1.000000000003365 	101324.9999999926
-0.1814314314314318 	299.9999999999887 	1.000000000002873 	101324.9999999924
-0.1789289289289293 	299.9999999999281 	1.000000000001551 	101324.9999999925
-0.1764264264264268 	299.9999999999578 	1.000000000001749 	101324.9999999924
-0.1739239239239243 	299.9999999999229 	1.000000000002173 	101324.9999999922
-0.1714214214214218 	299.9999999999702 	1.000000000001666 	101324.9999999921
-0.1689189189189193 	299.9999999999544 	1.00000000000056 	101324.9999999926
-0.1664164164164168 	299.9999999999905 	0.999999999999905 	101324.9999999927
-0.1639139139139143 	300.0000000000007 	1.000000000001675 	101324.9999999928
-0.1614114114114118 	300.000000000018 	1.000000000001158 	101324.9999999926
-0.1589089089089093 	300.0000000000089 	1.000000000014314 	101324.9999999925
-0.1564064064064068 	299.9999999999849 	0.9999999999968203 	101324.9999999925
-0.1539039039039043 	299.9999999999893 	1.000000000005507 	101324.9999999922
-0.1514014014014018 	300.0000000000128 	0.9999999999984631 	101324.999999992
-0.1488988988988993 	299.999999999993 	1.000000000005716 	101324.9999999921
-0.1463963963963968 	299.9999999999932 	0.9999999999999 	101324.9999999924
-0.1438938938938943 	299.9999999999651 	1.000000000002943 	101324.9999999916
-0.1413913913913918 	299.9999999999418 	1.00000000000419 	101324.9999999921
-0.1388888888888893 	299.9999999999664 	1.000000000003152 	101324.9999999922
-0.1363863863863868 	299.9999999999332 	1.00000000000308 	101324.9999999922
-0.1338838838838843 	299.9999999999125 	1.000000000003 	101324.9999999924
-0.1313813813813818 	299.999999999977 	1.000000000003132 	101324.9999999925
-0.1288788788788793 	299.9999999999528 	1.000000000002237 	101324.9999999926
-0.1263763763763768 	299.999999999976 	1.000000000002554 	101324.9999999929
-0.1238738738738743 	299.9999999999494 	1.000000000002533 	101324.9999999927
-0.1213713713713717 	299.9999999999742 	1.000000000002133 	101324.9999999921
-0.1188688688688693 	300.0000000000106 	1.000000000000919 	101324.9999999926
-0.1163663663663668 	299.9999999999332 	1.000000000000241 	101324.9999999933
-0.1138638638638643 	299.9999999999717 	1.000000000007437 	101324.9999999928
-0.1113613613613618 	299.9999999999844 	0.9999999999990123 	101324.9999999923
-0.1088588588588592 	299.9999999999829 	1.000000000007787 	101324.9999999923
-0.1063563563563568 	299.9999999999729 	1.000000000000399 	101324.999999992
-0.1038538538538543 	299.9999999999788 	1.000000000001771 	101324.9999999922
-0.1013513513513517 	300.0000000000019 	1.000000000002923 	101324.9999999923
-0.09884884884884926 	299.9999999999756 	1.000000000002528 	101324.999999992
-0.09634634634634676 	299.9999999999329 	1.000000000001915 	101324.999999993
-0.09384384384384425 	299.9999999999078 	1.000000000001634 	101324.9999999932
-0.09134134134134177 	299.9999999999941 	1.000000000002057 	101324.9999999933
-0.08883883883883925 	300.0000000000077 	1.000000000003003 	101324.9999999929
-0.08633633633633674 	299.999999999957 	1.000000000003402 	101324.9999999929
-0.08383383383383426 	299.9999999999936 	1.000000000004131 	101324.9999999931
-0.08133133133133173 	299.9999999999828 	1.000000000003415 	101324.9999999929
-0.07882882882882926 	299.9999999999289 	1.00000000000297 	101324.9999999926
-0.07632632632632676 	299.9999999999554 	1.000000000002123 	101324.9999999931
-0.07382382382382424 	299.9999999999202 	1.000000000001756 	101324.9999999928
-0.07132132132132173 	299.9999999999717 	1.000000000002135 	101324.9999999926
-0.06881881881881925 	299.9999999999565 	1.000000000002642 	101324.9999999922
-0.06631631631631671 	299.9999999999131 	1.000000000002114 	101324.9999999924
-0.06381381381381425 	299.9999999999482 	1.000000000001406 	101324.9999999922
-0.06131131131131173 	299.9999999999584 	1.000000000002193 	101324.9999999928
-0.05880880880880923 	299.9999999999629 	1.000000000002207 	101324.9999999923
-0.05630630630630672 	299.9999999999616 	1.000000000002226 	101324.999999992
-0.05380380380380424 	300.000000000016 	1.00000000000228 	101324.999999992
-0.05130130130130173 	300.0000000000103 	1.0000000000025 	101324.9999999926
-0.04879879879879922 	299.9999999999306 	1.000000000002933 	101324.9999999929
-0.04629629629629672 	299.9999999999315 	1.0000000000028 	101324.9999999933
-0.04379379379379422 	299.9999999999415 	1.000000000001988 	101324.999999993
-0.04129129129129173 	299.9999999999503 	1.000000000001283 	101324.9999999931
-0.03878878878878922 	299.9999999999976 	1.000000000001123 	101324.9999999928
-0.03628628628628671 	299.9999999999789 	1.0000000000017 	101324.9999999921
-0.03378378378378422 	299.9999999999274 	1.000000000002364 	101324.9999999918
-0.03128128128128172 	299.9999999999455 	1.000000000002061 	101324.9999999918
-0.02877877877877922 	299.9999999999962 	1.000000000001308 	101324.9999999922
-0.0262762762762767 	299.9999999999266 	0.9999999999997223 	101324.9999999923
-0.02377377377377422 	299.9999999999703 	0.9999999999993556 	101324.9999999923
-0.0212712712712717 	299.9999999999114 	0.999999999999913 	101324.9999999922
-0.01876876876876921 	299.9999999999661 	1.0000000000005 	101324.9999999921
-0.01626626626626671 	299.999999999988 	1.000000000000515 	101324.9999999922
-0.0137637637637642 	299.9999999999531 	1.000000000000171 	101324.9999999919
-0.0112612612612617 	299.999999999977 	1.000000000000276 	101324.9999999919
-0.008758758758759198 	299.9999999999711 	1.000000000000613 	101324.9999999925
-0.006256256256256697 	299.999999999938 	1.000000000000215 	101324.9999999928
-0.003753753753754195 	299.9999999999421 	0.9999999999992705 	101324.9999999926
-0.001251251251251693 	299.9999999999411 	0.999999999997995 	101324.9999999922
0.00125125125125081 	299.9999999999278 	0.9999999999984838 	101324.9999999922
0.003753753753753312 	299.9999999999337 	0.9999999999984995 	101324.9999999928
0.006256256256255817 	299.9999999999284 	0.9999999999992047 	101324.9999999929
0.008758758758758317 	299.9999999999406 	1.000000000000121 	101324.9999999928
0.01126126126126082 	299.9999999999706 	1.000000000000129 	101324.9999999925
0.01376376376376332 	299.9999999999488 	0.9999999999998425 	101324.9999999918
0.01626626626626582 	299.999999999981 	0.9999999999989236 	101324.9999999915
0.01876876876876833 	299.9999999999807 	0.9999999999991818 	101324.9999999915
0.02127127127127083 	299.9999999999295 	0.9999999999994948 	101324.9999999914
0.02377377377377332 	299.9999999999827 	1.000000000000392 	101324.9999999922
0.02627627627627583 	299.9999999999359 	1.000000000000405 	101324.9999999922
0.02877877877877833 	299.9999999999699 	0.9999999999998391 	101324.9999999919
0.03128128128128083 	299.9999999999698 	0.9999999999985227 	101324.9999999918
0.03378378378378333 	299.9999999999324 	0.9999999999970122 	101324.999999992
0.03628628628628584 	299.9999999999528 	0.9999999999973059 	101324.9999999916
0.03878878878878834 	299.9999999999942 	0.9999999999977113 	101324.9999999911
0.04129129129129084 	299.9999999999512 	0.9999999999987244 	101324.9999999915
0.04379379379379333 	299.9999999999522 	0.9999999999991748 	101324.9999999921
0.04629629629629585 	299.9999999999372 	0.999999999998756 	101324.9999999921
0.04879879879879834 	299.999999999926 	0.9999999999982272 	101324.9999999923
0.05130130130130085 	299.9999999999966 	0.9999999999990609 	101324.9999999926
0.05380380380380335 	300.0000000000152 	0.9999999999995922 	101324.9999999926
0.05630630630630584 	299.9999999999844 	0.9999999999997539 	101324.9999999922
0.05880880880880836 	299.9999999999519 	0.9999999999987621 	101324.9999999916
0.06131131131131085 	299.9999999999598 	0.9999999999974506 	101324.9999999912
0.06381381381381336 	299.9999999999695 	0.999999999996367 	101324.9999999912
0.06631631631631586 	299.9999999999286 	0.9999999999958051 	101324.9999999915
0.06881881881881835 	299.9999999999524 	0.9999999999961067 	101324.9999999916
0.07132132132132088 	299.9999999999821 	0.9999999999953019 	101324.9999999922
0.07382382382382337 	299.9999999999304 	0.999999999995656 	101324.999999992
0.07632632632632587 	299.9999999999587 	0.9999999999964703 	101324.9999999923
0.07882882882882837 	299.9999999999553 	0.9999999999968062 	101324.9999999925
0.08133133133133086 	299.9999999999667 	0.9999999999971967 	101324.9999999923
0.08383383383383337 	299.999999999981 	0.9999999999977212 	101324.9999999923
0.08633633633633589 	299.9999999999272 	0.9999999999964843 	101324.9999999925
0.08883883883883838 	299.9999999999862 	0.9999999999962528 	101324.999999992
0.09134134134134086 	299.9999999999836 	0.9999999999963163 	101324.9999999918
0.09384384384384339 	299.999999999923 	0.9999999999953705 	101324.9999999917
0.09634634634634588 	299.9999999999565 	0.9999999999947484 	101324.9999999914
0.09884884884884838 	299.9999999999729 	0.9999999999950656 	101324.9999999914
0.1013513513513509 	300.0000000000217 	0.9999999999964003 	101324.9999999915
0.1038538538538534 	299.999999999989 	0.9999999999971659 	101324.999999992
0.1063563563563559 	299.999999999989 	0.9999999999971764 	101324.9999999921
0.1088588588588584 	300.0000000000172 	0.9999999999967432 	101324.9999999922
0.1113613613613609 	299.999999999972 	0.999999999996491 	101324.9999999918
0.1138638638638634 	299.9999999999397 	0.9999999999964185 	101324.999999992
0.1163663663663659 	299.9999999999449 	0.9999999999962486 	101324.9999999932
0.1188688688688684 	299.9999999999615 	0.9999999999960298 	101324.9999999936
0.1213713713713709 	299.999999999997 	0.9999999999961148 	101324.9999999936
0.1238738738738734 	299.9999999999474 	0.999999999996135 	101324.9999999928
0.1263763763763759 	299.9999999999827 	0.9999999999952988 	101324.9999999919
0.1288788788788784 	299.9999999999879 	0.999999999993893 	101324.9999999918
0.1313813813813809 	299.9999999999756 	0.9999999999933707 	101324.9999999917
0.1338838838838834 	299.9999999999793 	0.9999999999933087 	101324.9999999916
0.1363863863863859 	300.0000000000051 	0.9999999999954577 	101324.999999992
0.1388888888888884 	300.0000000000276 	0.9999999999967466 	101324.9999999917
0.1413913913913909 	300.0000000000048 	0.9999999999977157 	101324.9999999911
0.1438938938938934 	299.9999999999908 	0.9999999999970922 	101324.9999999916
0.1463963963963959 	299.999999999964 	0.9999999999965787 	101324.9999999913
0.1488988988988985 	299.9999999999313 	0.999999999996128 	101324.9999999913
0.1514014014014009 	299.9999999999627 	0.9999999999961486 	101324.9999999915
0.1539039039039035 	299.9999999999616 	0.9999999999967473 	101324.999999992
0.1564064064064059 	299.9999999999447 	1.000000000002628 	101324.9999999922
0.1589089089089084 	299.9999999999656 	0.9999999999918069 	101324.9999999926
0.1614114114114109 	299.9999999999633 	0.9999999999929372 	101324.9999999928
0.1639139139139134 	299.9999999999361 	0.9999999999944695 	101324.9999999923
0.166416416416416 	299.9999999999679 	0.9999999999946542 	101324.9999999917
0.1689189189189185 	300.0000000000243 	0.9999999999951555 	101324.9999999913
0.1714214214214209 	300.0000000000105 	0.9999999999967993 	101324.9999999915
0.1739239239239235 	299.999999999986 	0.9999999999992486 	101324.9999999912
0.1764264264264259 	299.9999999999752 	0.9999999999997012 	101324.9999999915
0.1789289289289284 	300.0000000000071 	1.000000000003524 	101324.9999999915
0.181431431431431 	299.9999999999901 	0.9999999999933037 	101324.9999999919
0.1839339339339334 	299.9999999999869 	0.9999999999959471 	101324.9999999916
0.186436436436436 	299.9999999999542 	0.999999999998161 	101324.999999991
0.1889389389389385 	299.9999999999771 	0.9999999999981254 	101324.9999999915
0.191441441441441 	299.9999999999753 	0.999999999997561 	101324.9999999914
0.1939439439439434 	299.99999999995 	0.9999999999972188 	101324.9999999919
0.196446446446446 	299.9999999999478 	1.000000000001074 	101324.9999999922
0.1989489489489485 	299.9999999999682 	0.9999999999907654 	101324.9999999922
0.2014514514514509 	299.9999999999865 	0.9999999999940491 	101324.9999999925
0.2039539539539535 	299.999999999988 	0.9999999999973085 	101324.9999999922
0.2064564564564559 	299.999999999959 	0.9999999999978615 	101324.9999999924
0.2089589589589585 	299.999999999981 	0.9999999999980825 	101324.9999999919
0.211461461461461 	299.9999999999549 	0.999999999997812 	101324.9999999912
0.2139639639639635 	299.9999999999769 	0.9999999999978855 	101324.999999991
0.2164664664664659 	300.0000000000111 	0.999999999997834 	101324.9999999913
0.2189689689689684 	300.0000000000121 	1.000000000002599 	101324.9999999919
0.221471471471471 	300.0000000000064 	0.9999999999935253 	101324.9999999922
0.2239739739739735 	299.9999999999714 	0.9999999999950979 	101324.9999999924
0.226476476476476 	299.9999999999864 	0.9999999999965268 	101324.9999999923
0.2289789789789785 	299.999999999997 	0.9999999999968118 	101324.9999999924
0.231481481481481 	299.9999999999881 	0.9999999999970894 	101324.9999999926
0.2339839839839835 	299.9999999999752 	0.999999999997354 	101324.9999999922
0.236486486486486 	300.0000000000086 	0.9999999999962089 	101324.9999999918
0.2389889889889885 	299.999999999999 	0.9999999999955462 	101324.999999992
0.241491491491491 	299.9999999999444 	1.000000000000988 	101324.9999999917
0.2439939939939935 	299.9999999999774 	0.999999999993294 	101324.9999999922
0.246496496496496 	299.999999999993 	0.9999999999972251 	101324.9999999925
0.2489989989989985 	300.0000000000342 	0.9999999999990877 	101324.9999999921
0.251501501501501 	300.0000000000307 	0.9999999999979916 	101324.999999992
0.2540040040040035 	300.000000000002 	0.9999999999972238 	101324.9999999918
0.256506506506506 	300.0000000000205 	0.9999999999978345 	101324.9999999914
0.2590090090090086 	299.999999999945 	1.000000000003397 	101324.9999999913
0.261511511511511 	299.9999999999881 	0.9999999999949977 	101324.9999999918
0.2640140140140135 	299.9999999999847 	0.9999999999979255 	101324.9999999915
0.2665165165165161 	299.9999999999467 	0.999999999999812 	101324.9999999915
0.2690190190190185 	299.9999999999942 	0.9999999999987318 	101324.9999999917
0.271521521521521 	300.0000000000239 	0.9999999999983642 	101324.9999999914
0.2740240240240235 	300.000000000025 	0.9999999999980622 	101324.9999999908
0.276526526526526 	300.0000000000182 	0.9999999999978025 	101324.999999991
0.2790290290290286 	299.9999999999613 	0.9999999999977108 	101324.9999999914
0.281531531531531 	299.999999999945 	1.00000000000142 	101324.9999999919
0.2840340340340335 	299.99999999997 	0.9999999999924302 	101324.9999999919
0.2865365365365361 	299.9999999999771 	0.9999999999952476 	101324.999999992
0.2890390390390385 	300.0000000000082 	0.9999999999976874 	101324.9999999916
0.291541541541541 	300.0000000000152 	0.9999999999981447 	101324.9999999913
0.2940440440440436 	300.0000000000123 	0.9999999999973875 	101324.9999999914
0.296546546546546 	300.0000000000103 	0.9999999999970181 	101324.9999999916
0.2990490490490486 	299.999999999969 	0.9999999999971725 	101324.9999999922
0.3015515515515511 	300.0000000000015 	0.9999999999986241 	101324.9999999918
0.3040540540540535 	299.9999999999985 	1.000000000009138 	101324.9999999916
0.3065565565565562 	300.0000000000039 	0.9999999999917649 	101324.9999999914
0.3090590590590585 	299.9999999999994 	0.9999999999965945 	101324.9999999916
0.3115615615615611 	299.9999999999572 	1.000000000000206 	101324.9999999918
0.3140640640640635 	300.0000000000013 	0.9999999999984223 	101324.9999999915
0.316566566566566 	299.9999999999947 	0.9999999999975187 	101324.9999999913
0.3190690690690687 	299.9999999999504 	0.9999999999985344 	101324.9999999912
0.3215715715715711 	299.9999999999914 	1.000000000000322 	101324.9999999908
0.3240740740740735 	299.9999999999915 	1.000000000000978 	101324.999999991
0.326576576576576 	299.9999999999454 	1.000000000000764 	101324.9999999908
0.3290790790790786 	300.0000000000067 	0.999999999999434 	101324.9999999905
0.3315815815815811 	300.0000000000196 	0.999999999997821 	101324.9999999909
0.3340840840840836 	300.0000000000077 	0.9999999999966594 	101324.9999999912
0.3365865865865861 	300.0000000000284 	0.99999999999667 	101324.9999999913
0.3390890890890886 	300.0000000000376 	0.9999999999976931 	101324.9999999912
0.3415915915915911 	300.0000000000125 	0.9999999999995152 	101324.9999999913
0.3440940940940935 	299.9999999999499 	1.000000000003721 	101324.9999999912
0.3465965965965962 	299.9999999999998 	0.9999999999941361 	101324.9999999915
0.3490990990990985 	300.0000000000101 	0.9999999999957201 	101324.9999999914
0.3516016016016011 	300.0000000000152 	0.9999999999974356 	101324.9999999908
0.3541041041041035 	300.0000000000041 	0.9999999999980875 	101324.9999999911
0.3566066066066061 	299.9999999999413 	0.9999999999995376 	101324.9999999917
0.3591091091091085 	299.999999999955 	0.9999999999996146 	101324.9999999924
0.3616116116116112 	299.999999999971 	0.9999999999986046 	101324.999999992
0.3641141141141137 	299.9999999999514 	0.9999999999993571 	101324.9999999922
0.3666166166166161 	299.9999999999192 	1.000000000006577 	101324.9999999922
0.3691191191191185 	299.999999999993 	0.9999999999901461 	101324.9999999922
0.371621621621621 	300.0000000000026 	0.9999999999956154 	101324.9999999919
0.3741241241241237 	300.0000000000213 	0.999999999998631 	101324.9999999918
0.3766266266266261 	300.0000000000123 	0.9999999999973757 	101324.9999999915
0.3791291291291286 	299.9999999999916 	0.99999999999734 	101324.9999999907
0.3816316316316311 	299.9999999999558 	0.9999999999973925 	101324.9999999901
0.3841341341341336 	299.9999999999861 	0.9999999999973421 	101324.9999999904
0.3866366366366362 	299.9999999999831 	0.999999999996792 	101324.9999999913
0.3891391391391387 	299.9999999999663 	0.9999999999968339 	101324.9999999916
0.391641641641641 	299.9999999999945 	0.999999999997267 	101324.9999999917
0.3941441441441436 	299.9999999999977 	0.9999999999977895 	101324.9999999909
0.3966466466466462 	299.9999999999957 	0.9999999999984067 	101324.9999999906
0.3991491491491486 	299.9999999999774 	0.9999999999985429 	101324.9999999909
0.4016516516516512 	299.9999999999491 	0.9999999999984951 	101324.9999999912
0.4041541541541536 	299.9999999999671 	0.999999999998873 	101324.9999999913
0.4066566566566561 	299.9999999999682 	1.000000000002547 	101324.9999999911
0.4091591591591587 	300.0000000000033 	0.99999999999377 	101324.9999999907
0.4116616616616612 	300.0000000000162 	0.9999999999957673 	101324.9999999905
0.4141641641641635 	300.0000000000293 	0.9999999999983146 	101324.9999999906
0.4166666666666662 	300.0000000000147 	0.9999999999995294 	101324.9999999907
0.4191691691691687 	299.9999999999513 	1.000000000000704 	101324.9999999909
0.421671671671671 	299.9999999999855 	1.000000000001384 	101324.9999999912
0.4241741741741737 	299.9999999999717 	1.000000000001219 	101324.9999999916
0.4266766766766761 	299.9999999999479 	1.000000000002107 	101324.999999992
0.4291791791791785 	299.9999999999851 	1.000000000008247 	101324.9999999918
0.4316816816816812 	299.9999999999864 	0.9999999999919877 	101324.9999999916
0.4341841841841836 	299.9999999999995 	0.9999999999976089 	101324.9999999915
0.4366866866866862 	299.9999999999683 	1.000000000001399 	101324.9999999909
0.4391891891891885 	299.9999999999972 	1.000000000000741 	101324.9999999905
0.4416916916916913 	300.0000000000036 	1.0000000000007 	101324.9999999903
0.4441941941941936 	299.9999999999892 	1.000000000000799 	101324.9999999905
0.4466966966966961 	299.9999999999326 	1.000000000000744 	101324.9999999907
0.4491991991991987 	299.9999999999755 	1.000000000001009 	101324.9999999905
0.4517017017017012 	299.9999999999651 	1.000000000000676 	101324.9999999911
0.4542042042042035 	299.9999999999899 	1.00000000000123 	101324.9999999917
0.4567067067067062 	299.999999999996 	1.00000000000116 	101324.9999999919
0.4592092092092087 	299.9999999999355 	1.000000000000473 	101324.9999999918
0.4617117117117112 	299.9999999999749 	0.9999999999995116 	101324.9999999918
0.4642142142142137 	299.9999999999554 	0.9999999999997145 	101324.9999999921
0.4667167167167162 	299.9999999999838 	0.999999999999901 	101324.9999999918
0.4692192192192187 	299.9999999999581 	0.9999999999998044 	101324.9999999916
0.4717217217217212 	299.9999999999994 	0.9999999999994583 	101324.9999999916
0.4742242242242236 	299.9999999999686 	0.999999999998829 	101324.9999999916
0.4767267267267262 	299.9999999999606 	0.9999999999987632 	101324.9999999919
0.4792292292292287 	299.9999999999995 	0.9999999999992377 	101324.9999999923
0.4817317317317312 	300.0000000000155 	1.000000000000638 	101324.9999999922
0.4842342342342336 	300.0000000000099 	1.000000000001045 	101324.9999999924
0.4867367367367362 	299.9999999999896 	1.000000000001274 	101324.9999999921
0.4892392392392387 	300.0000000000053 	1.000000000002121 	101324.9999999916
0.4917417417417412 	300.0000000000275 	1.000000000002274 	101324.9999999912
0.4942442442442437 	299.9999999999782 	1.00000000000213 	101324.999999991
0.4967467467467462 	299.9999999999412 	1.000000000003731 	101324.9999999913
0.4992492492492487 	299.9999999999147 	0.9999999999960555 	101324.9999999912
0.5017517517517511 	299.9999999999354 	0.9999999999980647 	101324.9999999914
0.5042542542542537 	299.9999999999825 	0.9999999999992325 	101324.9999999915
0.5067567567567562 	299.9999999999754 	0.9999999999980894 	101324.9999999914
0.5092592592592589 	299.9999999999628 	0.999999999997098 	101324.9999999915
0.5117617617617611 	299.9999999999824 	0.9999999999976434 	101324.9999999917
0.5142642642642637 	300.000000000008 	0.9999999999979569 	101324.9999999919
0.5167667667667663 	299.9999999999962 	1.000000000000136 	101324.9999999917
0.5192692692692688 	299.9999999999397 	1.000000000006058 	101324.9999999913
0.5217717717717714 	299.9999999999583 	0.9999999999904369 	101324.9999999911
0.5242742742742736 	299.9999999999582 	0.9999999999958693 	101324.9999999912
0.5267767767767763 	299.9999999999524 	0.9999999999996688 	101324.9999999916
0.5292792792792789 	299.9999999999537 	0.999999999999165 	101324.9999999918
0.5317817817817813 	299.9999999999345 	0.9999999999980592 	101324.9999999919
0.5342842842842837 	299.9999999999798 	0.9999999999979235 	101324.9999999916
0.5367867867867864 	299.999999999981 	0.9999999999986641 	101324.9999999914
0.5392892892892888 	299.9999999999463 	0.9999999999991669 	101324.999999991
0.5417917917917912 	299.9999999999613 	0.999999999998695 	101324.9999999907
0.5442942942942938 	299.9999999999541 	0.9999999999977196 	101324.9999999909
0.5467967967967964 	299.9999999999727 	0.999999999998135 	101324.9999999915
0.5492992992992988 	299.9999999999684 	0.999999999998729 	101324.9999999919
0.5518018018018012 	299.9999999999582 	0.9999999999990314 	101324.9999999926
0.5543043043043039 	299.9999999999907 	0.9999999999989831 	101324.9999999931
0.5568068068068063 	299.9999999999845 	0.9999999999999799 	101324.9999999929
0.5593093093093087 	299.9999999999492 	1.000000000002704 	101324.9999999926
0.5618118118118114 	299.9999999999421 	0.9999999999950533 	101324.9999999921
0.5643143143143137 	299.9999999999264 	0.9999999999975824 	101324.9999999914
0.5668168168168163 	299.9999999999605 	0.9999999999991491 	101324.9999999915
0.5693193193193188 	300.000000000001 	0.9999999999996581 	101324.9999999916
0.5718218218218213 	300.0000000000254 	1.000000000000213 	101324.9999999915
0.5743243243243239 	300.0000000000262 	1.000000000000692 	101324.9999999919
0.5768268268268262 	300.0000000000119 	1.000000000000835 	101324.9999999921
0.5793293293293288 	299.9999999999742 	1.000000000003716 	101324.9999999917
0.5818318318318314 	299.9999999999562 	1.000000000008511 	101324.999999992
0.5843343343343338 	299.9999999999974 	0.9999999999929976 	101324.9999999924
0.5868368368368363 	299.999999999986 	0.9999999999978153 	101324.999999992
0.5893393393393387 	299.9999999999453 	1.000000000001092 	101324.9999999916
0.5918418418418413 	299.9999999999615 	0.9999999999995853 	101324.9999999916
0.5943443443443439 	299.9999999999995 	0.9999999999991902 	101324.999999992
0.5968468468468463 	300.0000000000127 	1.000000000000845 	101324.9999999925
0.5993493493493487 	300.0000000000362 	1.000000000002347 	101324.999999993
0.6018518518518514 	300.0000000000189 	1.000000000001636 	101324.9999999929
0.6043543543543537 	300.0000000000121 	1.000000000000328 	101324.9999999924
0.6068568568568564 	299.9999999999969 	0.9999999999999548 	101324.9999999922
0.6093593593593587 	299.999999999944 	1.00000000000089 	101324.9999999924
0.6118618618618614 	299.9999999999417 	1.000000000001748 	101324.999999993
0.6143643643643638 	300.0000000000021 	1.00000000000133 	101324.9999999929
0.6168668668668662 	299.9999999999976 	1.000000000001237 	101324.9999999925
0.6193693693693688 	299.9999999999793 	1.000000000002396 	101324.9999999924
0.6218718718718714 	299.9999999999953 	1.000000000003868 	101324.9999999922
0.6243743743743737 	299.9999999999822 	0.9999999999961519 	101324.9999999918
0.6268768768768762 	299.9999999999654 	0.9999999999989453 	101324.999999992
0.629379379379379 	299.9999999999786 	1.000000000001459 	101324.9999999919
0.6318818818818812 	299.9999999999923 	1.000000000002176 	101324.9999999917
0.6343843843843838 	300.0000000000189 	1.0000000000022 	101324.9999999921
0.6368868868868864 	300.0000000000053 	1.000000000002182 	101324.9999999921
0.6393893893893888 	299.9999999999577 	1.000000000001995 	101324.9999999925
0.6418918918918912 	299.9999999999798 	1.00000000000407 	101324.9999999929
0.6443943943943939 	299.9999999999699 	1.000000000007431 	101324.9999999922
0.6468968968968963 	299.9999999999731 	0.9999999999931203 	101324.9999999922
0.6493993993993988 	299.9999999999742 	0.9999999999992273 	101324.9999999923
0.6519019019019012 	299.9999999999897 	1.000000000003377 	101324.9999999922
0.6544044044044038 	299.9999999999513 	1.00000000000221 	101324.9999999922
0.6569069069069065 	299.9999999999444 	1.000000000001357 	101324.9999999922
0.6594094094094087 	299.999999999966 	1.00000000000113 	101324.9999999923
0.6619119119119113 	299.9999999999807 	1.000000000001291 	101324.9999999921
0.664414414414414 	299.9999999999931 	1.000000000002105 	101324.9999999921
0.6669169169169162 	299.9999999999915 	1.000000000002415 	101324.9999999917
0.6694194194194188 	299.9999999999832 	1.00000000000269 	101324.9999999921
0.6719219219219214 	299.9999999999577 	1.000000000002282 	101324.9999999923
0.674424424424424 	299.9999999999734 	1.000000000000554 	101324.999999992
0.6769269269269262 	299.9999999999511 	0.9999999999991636 	101324.9999999923
0.679429429429429 	300.0000000000034 	0.9999999999991429 	101324.999999992
0.6819319319319311 	300.000000000019 	1.000000000000685 	101324.999999992
0.6844344344344341 	300.0000000000283 	1.000000000004019 	101324.9999999914
0.686936936936936 	300.0000000000264 	0.9999999999989388 	101324.999999991
0.6894394394394392 	300.0000000000216 	1.000000000002648 	101324.9999999912
0.6919419419419413 	300.0000000000074 	1.000000000004599 	101324.9999999916
0.694444444444444 	299.9999999999609 	1.000000000003781 	101324.9999999917
0.6969469469469463 	299.9999999999275 	1.000000000003288 	101324.9999999918
0.6994494494494489 	299.9999999999399 	1.000000000003182 	101324.9999999919
0.7019519519519515 	299.9999999999649 	1.000000000003401 	101324.9999999923
0.7044544544544538 	299.9999999999525 	1.000000000006496 	101324.9999999919
0.7069569569569564 	299.999999999994 	1.000000000009769 	101324.9999999919
0.7094594594594589 	299.9999999999793 	0.9999999999957172 	101324.9999999919
0.7119619619619615 	299.9999999999477 	1.000000000000335 	101324.9999999919
0.7144644644644638 	299.9999999999651 	1.000000000003778 	101324.9999999917
0.7169669669669665 	299.9999999999561 	1.000000000003368 	101324.9999999921
0.7194694694694688 	300.0000000000062 	1.000000000003301 	101324.9999999923
0.7219719719719715 	300.0000000000069 	1.000000000003584 	101324.9999999922
0.7244744744744737 	299.9999999999982 	1.000000000003243 	101324.9999999921
0.7269769769769764 	300.0000000000018 	1.000000000006041 	101324.9999999921
0.7294794794794791 	299.9999999999989 	1.0000000000087 	101324.9999999917
0.7319819819819813 	299.9999999999817 	0.999999999995369 	101324.9999999919
0.7344844844844839 	299.9999999999304 	1.000000000000062 	101324.9999999921
0.7369869869869864 	299.9999999999435 	1.000000000002958 	101324.9999999921
0.739489489489489 	299.9999999999634 	1.000000000003216 	101324.9999999917
0.7419919919919914 	299.9999999999573 	1.000000000003566 	101324.9999999915
0.7444944944944939 	299.9999999999591 	1.000000000005273 	101324.9999999912
0.7469969969969963 	299.9999999999781 	1.00000000000638 	101324.9999999914
0.7494994994994989 	299.9999999999475 	1.000000000003184 	101324.999999992
0.7520020020020015 	299.9999999999559 	1.000000000008357 	101324.9999999925
0.7545045045045039 	299.999999999961 	0.9999999999968705 	101324.9999999927
0.7570070070070062 	299.9999999999556 	1.000000000001457 	101324.9999999924
0.7595095095095092 	299.9999999999592 	1.000000000003881 	101324.9999999919
0.7620120120120112 	299.9999999999873 	1.000000000003772 	101324.9999999917
0.7645145145145138 	299.9999999999881 	1.000000000004271 	101324.9999999916
0.7670170170170165 	299.999999999957 	1.000000000007385 	101324.9999999916
0.7695195195195191 	299.9999999999314 	1.000000000009175 	101324.9999999915
0.7720220220220213 	299.9999999999496 	0.9999999999962257 	101324.9999999915
0.7745245245245239 	299.9999999999428 	1.000000000000582 	101324.9999999916
0.7770270270270263 	299.9999999999393 	1.000000000002434 	101324.9999999917
0.779529529529529 	299.9999999999608 	1.000000000001876 	101324.999999992
0.7820320320320313 	299.9999999999632 	1.000000000002382 	101324.9999999925
0.784534534534534 	299.9999999999953 	1.000000000003571 	101324.9999999924
0.7870370370370364 	299.9999999999874 	1.000000000003944 	101324.9999999919
0.7895395395395389 	299.9999999999752 	1.0000000000034 	101324.9999999914
0.7920420420420413 	299.9999999999856 	1.000000000002706 	101324.9999999911
0.794544544544544 	299.9999999999856 	1.000000000006149 	101324.9999999908
0.7970470470470463 	300.0000000000084 	1.000000000008224 	101324.9999999907
0.799549549549549 	300.0000000000087 	0.999999999995979 	101324.9999999909
0.8020520520520515 	299.9999999999869 	1.000000000001609 	101324.999999991
0.8045545545545539 	299.9999999999471 	1.000000000004947 	101324.9999999912
0.8070570570570563 	299.9999999999604 	1.000000000004709 	101324.9999999916
0.8095595595595589 	299.9999999999558 	1.000000000004417 	101324.9999999915
0.8120620620620614 	299.9999999999656 	1.000000000004915 	101324.9999999913
0.8145645645645638 	300.0000000000067 	1.0000000000047 	101324.9999999912
0.8170670670670666 	300.0000000000273 	1.000000000007587 	101324.9999999911
0.8195695695695689 	300.0000000000043 	1.000000000009842 	101324.9999999909
0.8220720720720714 	299.9999999999518 	0.9999999999984817 	101324.9999999913
0.8245745745745739 	299.9999999999644 	1.000000000003745 	101324.9999999917
0.8270770770770765 	299.9999999999737 	1.000000000006494 	101324.9999999918
0.8295795795795788 	299.9999999999728 	1.000000000005978 	101324.9999999915
0.8320820820820815 	300.0000000000059 	1.000000000005949 	101324.999999991
0.834584584584584 	300.0000000000034 	1.000000000007882 	101324.9999999906
0.8370870870870865 	299.9999999999698 	1.000000000008455 	101324.9999999909
0.8395895895895891 	299.9999999999382 	1.00000000000252 	101324.9999999915
0.8420920920920915 	299.9999999999666 	1.000000000004896 	101324.9999999914
0.844594594594594 	299.9999999999608 	1.000000000006029 	101324.9999999909
0.8470970970970964 	299.9999999999574 	1.000000000005513 	101324.9999999905
0.8495995995995991 	299.9999999999973 	1.000000000005098 	101324.9999999908
0.8521021021021015 	299.9999999999926 	1.000000000005234 	101324.9999999912
0.8546046046046039 	299.9999999999738 	1.000000000004804 	101324.9999999918
0.8571071071071066 	299.9999999999916 	1.000000000007474 	101324.9999999915
0.8596096096096089 	299.9999999999836 	1.000000000007655 	101324.9999999911
0.8621121121121116 	299.9999999999717 	0.9999999999959603 	101324.9999999909
0.8646146146146139 	300.0000000000052 	1.000000000001841 	101324.9999999909
0.8671171171171166 	299.9999999999837 	1.000000000005004 	101324.9999999907
0.8696196196196189 	299.9999999999468 	1.000000000004533 	101324.9999999904
0.8721221221221216 	299.9999999999704 	1.000000000004455 	101324.9999999903
0.874624624624624 	299.9999999999987 	1.000000000004918 	101324.9999999907
0.8771271271271264 	299.9999999999978 	1.000000000004902 	101324.9999999909
0.879629629629629 	299.9999999999933 	1.000000000008837 	101324.9999999908
0.8821321321321317 	299.9999999999823 	1.000000000009877 	101324.9999999906
0.8846346346346339 	299.9999999999526 	0.9999999999978062 	101324.9999999907
0.8871371371371364 	299.999999999957 	1.000000000002073 	101324.9999999905
0.8896396396396391 	299.9999999999582 	1.000000000005053 	101324.9999999903
0.8921421421421414 	299.9999999999623 	1.000000000005381 	101324.9999999903
0.8946446446446441 	299.9999999999776 	1.000000000005861 	101324.9999999908
0.8971471471471464 	299.999999999993 	1.0000000000083 	101324.999999991
0.8996496496496489 	299.9999999999907 	1.000000000008326 	101324.9999999913
0.9021521521521517 	299.9999999999851 	1.000000000001315 	101324.9999999915
0.9046546546546541 	299.9999999999927 	1.00000000000296 	101324.9999999915
0.9071571571571564 	299.9999999999688 	1.000000000004391 	101324.999999991
0.9096596596596589 	299.9999999999524 	1.000000000004323 	101324.9999999908
0.9121621621621616 	299.9999999999863 	1.000000000004261 	101324.9999999907
0.9146646646646639 	299.9999999999744 	1.000000000004209 	101324.99999999
0.9171671671671666 	299.9999999999513 	1.000000000003799 	101324.9999999901
0.9196696696696689 	299.999999999979 	1.000000000007727 	101324.9999999905
0.9221721721721714 	299.9999999999811 	1.00000000000748 	101324.9999999903
0.9246746746746741 	299.9999999999448 	0.9999999999954521 	101324.9999999901
0.9271771771771765 	299.9999999999588 	1.000000000001319 	101324.99999999
0.9296796796796791 	299.9999999999787 	1.000000000005912 	101324.9999999903
0.9321821821821816 	299.9999999999696 	1.000000000006791 	101324.9999999906
0.9346846846846838 	299.9999999999603 	1.000000000006703 	101324.9999999906
0.9371871871871866 	299.9999999999944 	1.000000000005844 	101324.9999999905
0.9396896896896891 	299.9999999999989 	1.000000000004646 	101324.9999999905
0.9421921921921914 	299.9999999999926 	1.000000000007986 	101324.9999999904
0.9446946946946939 	299.9999999999835 	1.000000000007852 	101324.9999999899
0.9471971971971965 	299.9999999999616 	0.9999999999975862 	101324.9999999896
0.9496996996996991 	299.9999999999552 	1.000000000003296 	101324.9999999893
0.9522022022022016 	299.9999999999764 	1.000000000005959 	101324.9999999895
0.9547047047047038 	299.9999999999936 	1.0000000000058 	101324.9999999899
0.9572072072072064 	299.9999999999877 	1.00000000000555 	101324.9999999898
0.9597097097097093 	299.9999999999741 	1.000000000007227 	101324.9999999897
0.9622122122122114 	299.9999999999648 	1.000000000006376 	101324.9999999897
0.964714714714714 	299.9999999999526 	1.00000000000098 	101324.9999999899
0.9672172172172167 	299.9999999999477 	1.000000000004032 	101324.9999999902
0.969719719719719 	299.9999999999715 	1.000000000005644 	101324.9999999905
0.9722222222222214 	299.9999999999767 	1.000000000004281 	101324.9999999906
0.9747247247247239 	299.9999999999762 	1.000000000003099 	101324.9999999901
0.9772272272272267 	299.999999999997 	1.000000000003887 	101324.99999999
0.9797297297297292 	299.9999999999883 	1.00000000000439 	101324.9999999899
0.9822322322322313 	299.9999999999828 	1.000000000008646 	101324.99999999
0.9847347347347344 	299.999999999977 	1.000000000008282 	101324.9999999904
0.9872372372372363 	299.9999999999467 	0.9999999999980647 	101324.9999999904
0.9897397397397389 	299.9999999999453 	1.000000000003437 	101324.9999999902
0.9922422422422417 	299.999999999945 	1.000000000005975 	101324.9999999901
0.9947447447447441 	299.9999999999679 	1.000000000005494 	101324.9999999901
0.9972472472472468 	299.9999999999764 	1.000000000005307 	101324.99999999
0.999749749749749 	299.9999999999698 	1.000000000004679 	101324.9999999898
1.002252252252252 	299.999999999972 	1.000000000003453 	101324.9999999896
1.004754754754754 	299.9999999999903 	1.000000000007871 	101324.9999999899
1.007257257257256 	299.9999999999822 	1.000000000007639 	101324.9999999902
1.009759759759759 	299.9999999999712 	0.9999999999968954 	101324.9999999896
1.012262262262261 	299.9999999999719 	1.000000000000687 	101324.9999999889
1.014764764764764 	299.999999999952 	1.00000000000279 	101324.999999989
1.017267267267267 	299.999999999938 	1.000000000003138 	101324.9999999891
1.019769769769769 	299.9999999999665 	1.000000000003945 	101324.9999999894
1.022272272272272 	299.9999999999868 	1.000000000006428 	101324.9999999899
1.024774774774774 	299.9999999999924 	1.000000000005553 	101324.9999999898
1.027277277277277 	299.9999999999886 	1.000000000000361 	101324.9999999895
1.029779779779779 	300.0000000000041 	1.000000000002524 	101324.9999999895
1.032282282282282 	300.0000000000077 	1.000000000004111 	101324.9999999896
1.034784784784784 	300.0000000000043 	1.000000000004069 	101324.9999999894
1.037287287287286 	299.9999999999877 	1.000000000003552 	101324.9999999893
1.039789789789789 	299.9999999999847 	1.000000000003617 	101324.9999999894
1.042292292292291 	300.0000000000113 	1.000000000003711 	101324.9999999897
1.044794794794794 	300.0000000000302 	1.000000000009031 	101324.9999999898
1.047297297297296 	300.0000000000367 	1.000000000007872 	101324.99999999
1.049799799799799 	300.0000000000142 	0.9999999999980774 	101324.99999999
1.052302302302302 	299.9999999999887 	1.000000000003121 	101324.9999999898
1.054804804804804 	299.9999999999599 	1.000000000005123 	101324.9999999899
1.057307307307306 	299.9999999999408 	1.000000000004612 	101324.99999999
1.059809809809809 	299.9999999999607 	1.000000000005086 	101324.9999999898
1.062312312312312 	299.9999999999625 	1.000000000005676 	101324.9999999895
1.064814814814814 	299.9999999999628 	1.000000000005729 	101324.9999999896
1.067317317317317 	299.9999999999471 	1.000000000010571 	101324.9999999901
1.069819819819819 	299.9999999999375 	1.000000000008688 	101324.9999999903
1.072322322322321 	299.9999999999792 	0.9999999999988748 	101324.9999999904
1.074824824824824 	300.0000000000146 	1.000000000003726 	101324.9999999903
1.077327327327327 	300.0000000000269 	1.000000000006448 	101324.9999999898
1.079829829829829 	300.0000000000318 	1.000000000006051 	101324.9999999896
1.082332332332332 	300.000000000007 	1.000000000004942 	101324.9999999897
1.084834834834834 	299.999999999979 	1.00000000000931 	101324.9999999897
1.087337337337337 	299.9999999999504 	1.000000000007154 	101324.9999999897
1.089839839839839 	299.9999999999345 	0.9999999999977858 	101324.9999999897
1.092342342342342 	299.9999999999546 	1.00000000000306 	101324.9999999894
1.094844844844844 	299.9999999999602 	1.000000000011414 	101324.9999999893
1.097347347347347 	299.9999999999441 	1.000000000009065 	101324.9999999893
1.099849849849849 	299.9999999999361 	0.9999999999988272 	101324.9999999893
1.102352352352352 	299.999999999957 	1.000000000003765 	101324.9999999893
1.104854854854854 	299.9999999999771 	1.000000000006191 	101324.9999999894
1.107357357357357 	299.9999999999662 	1.000000000004984 	101324.9999999896
1.109859859859859 	299.9999999999563 	1.000000000003511 	101324.9999999897
1.112362362362362 	299.9999999999958 	1.00000000000859 	101324.9999999894
1.114864864864865 	300.0000000000034 	1.000000000007264 	101324.9999999893
1.117367367367367 	299.9999999999735 	0.9999999999985835 	101324.999999989
1.119869869869869 	299.9999999999437 	1.00000000000318 	101324.999999989
1.122372372372372 	299.999999999958 	1.000000000005623 	101324.9999999894
1.124874874874874 	299.999999999965 	1.000000000005614 	101324.9999999894
1.127377377377377 	299.9999999999603 	1.000000000006038 	101324.9999999893
1.129879879879879 	299.9999999999879 	1.000000000006539 	101324.9999999891
1.132382382382382 	300.0000000000261 	1.000000000006172 	101324.9999999892
1.134884884884884 	300.0000000000181 	1.000000000011461 	101324.9999999893
1.137387387387387 	300.0000000000092 	1.000000000008857 	101324.999999989
1.139889889889889 	299.9999999999715 	0.9999999999997181 	101324.9999999887
1.142392392392392 	299.9999999999577 	1.000000000004371 	101324.9999999887
1.144894894894894 	299.9999999999932 	1.000000000007167 	101324.999999989
1.147397397397397 	299.9999999999926 	1.000000000007884 	101324.9999999892
1.149899899899899 	299.9999999999628 	1.000000000008053 	101324.9999999893
1.152402402402402 	299.999999999945 	1.000000000007685 	101324.9999999894
1.154904904904904 	299.9999999999604 	1.000000000007255 	101324.9999999895
1.157407407407407 	299.9999999999611 	1.00000000001298 	101324.9999999895
1.159909909909909 	299.9999999999438 	1.000000000009873 	101324.9999999897
1.162412412412412 	299.9999999999402 	1.000000000000665 	101324.9999999898
1.164914914914914 	299.9999999999593 	1.000000000005667 	101324.9999999898
1.167417417417417 	299.9999999999575 	1.000000000007653 	101324.9999999898
1.169919919919919 	299.9999999999852 	1.000000000006928 	101324.9999999896
1.172422422422422 	300.0000000000197 	1.00000000000659 	101324.9999999896
1.174924924924925 	300.0000000000061 	1.000000000012575 	101324.9999999898
1.177427427427427 	299.9999999999794 	1.000000000009282 	101324.9999999897
1.179929929929929 	299.9999999999957 	0.9999999999999111 	101324.9999999895
1.182432432432432 	300.0000000000275 	1.00000000000468 	101324.9999999892
1.184934934934934 	300.0000000000094 	1.000000000006771 	101324.9999999891
1.187437437437437 	299.9999999999787 	1.00000000000611 	101324.9999999891
1.189939939939939 	299.9999999999686 	1.000000000005793 	101324.9999999889
1.192442442442442 	299.9999999999502 	1.000000000005815 	101324.9999999889
1.194944944944944 	299.9999999999411 	1.000000000005997 	101324.9999999893
1.197447447447447 	299.9999999999817 	1.000000000012399 	101324.9999999897
1.199949949949949 	300.0000000000098 	1.000000000009369 	101324.9999999896
1.202452452452452 	299.9999999999756 	1.000000000000927 	101324.9999999895
1.204954954954955 	299.9999999999577 	1.00000000000549 	101324.9999999893
1.207457457457457 	299.9999999999695 	1.000000000007572 	101324.9999999893
1.20995995995996 	299.9999999999762 	1.000000000007309 	101324.9999999893
1.212462462462462 	299.9999999999868 	1.000000000006864 	101324.9999999893
1.214964964964964 	299.9999999999899 	1.000000000006851 	101324.9999999891
1.217467467467467 	299.9999999999924 	1.000000000007017 	101324.9999999893
1.219969969969969 	299.999999999971 	1.000000000012735 	101324.9999999893
1.222472472472472 	299.99999999999 	1.000000000008874 	101324.9999999891
1.224974974974975 	300.0000000000242 	1.000000000001218 	101324.9999999891
1.227477477477477 	299.9999999999975 	1.000000000006345 	101324.9999999891
1.229979979979979 	299.9999999999818 	1.00000000000816 	101324.999999989
1.232482482482482 	299.9999999999631 	1.000000000007399 	101324.9999999887
1.234984984984984 	299.9999999999583 	1.000000000006734 	101324.9999999888
1.237487487487487 	299.9999999999778 	1.000000000013044 	101324.9999999889
1.239989989989989 	299.9999999999866 	1.000000000009735 	101324.9999999891
1.242492492492492 	300.0000000000041 	1.000000000002243 	101324.9999999891
1.244994994994994 	299.9999999999836 	1.000000000007567 	101324.9999999889
1.247497497497497 	299.9999999999896 	1.000000000009464 	101324.9999999891
1.249999999999999 	299.9999999999279 	1.000000000008775 	101324.999999989
