-1.25 	300 	0.01536023231865919 	101331.2666616782
-1.247497497497497 	300.0048503962467 	0.01667596919060277 	101331.9398372649
-1.244994994994995 	300.0064179849322 	0.01880480710941079 	101332.6058954766
-1.242492492492492 	300.0070018338789 	0.0203283255170053 	101333.2773293279
-1.23998998998999 	300.0075665554106 	0.02188343827335142 	101333.9457336449
-1.237487487487487 	300.0081303949095 	0.0235368661864768 	101334.6123699281
-1.234984984984985 	300.0086927954811 	0.02516123879856589 	101335.2772871706
-1.232482482482482 	300.0092535867817 	0.0267878155901782 	101335.9403043408
-1.22997997997998 	300.00981267283 	0.02840719871718516 	101336.6013085307
-1.227477477477477 	300.0103699476117 	0.03002220390291886 	101337.2601742407
-1.224974974974975 	300.0109253088536 	0.0316312511951794 	101337.9167805012
-1.222472472472472 	300.0114786534131 	0.03323459599680079 	101338.5710054498
-1.21996996996997 	300.0120298792459 	0.03483170616608251 	101339.2227283888
-1.217467467467467 	300.0125788847046 	0.03642239396467271 	101339.871828949
-1.214964964964965 	300.0131255684701 	0.03800632484695706 	101340.5181874325
-1.212462462462462 	300.0136698297287 	0.0395832289974658 	101341.1616846124
-1.20995995995996 	300.0142115681596 	0.04115280699231406 	101341.8022018633
-1.207457457457457 	300.0147506840681 	0.04271477385474312 	101342.4396211603
-1.204954954954955 	300.0152870781701 	0.04426884064777986 	101343.073825096
-1.202452452452452 	300.0158206516654 	0.04581472500229042 	101343.704696926
-1.19994994994995 	300.0163513065388 	0.04735214434126797 	101344.332120565
-1.197447447447447 	300.016878944992 	0.04888081545307779 	101344.9559805118
-1.194944944944945 	300.0174034700124 	0.05040045602613275 	101345.5761619447
-1.192442442442442 	300.0179247852683 	0.05191078831797665 	101346.1925507693
-1.18993993993994 	300.0184427947802 	0.05341153772594417 	101346.8050336191
-1.187437437437437 	300.0189574034293 	0.05490242815623532 	101347.4134979014
-1.184934934934935 	300.019468516712 	0.05638318375734289 	101348.0178317714
-1.182432432432432 	300.0199760407512 	0.05785353344284482 	101348.6179240925
-1.17992992992993 	300.0204798819337 	0.05931320984845736 	101349.2136644376
-1.177427427427427 	300.0209799472397 	0.06076194463877188 	101349.8049433093
-1.174924924924925 	300.0214761454665 	0.06219946980242161 	101350.391652155
-1.172422422422422 	300.0219683866784 	0.06362552241630375 	101350.9736832793
-1.16991991991992 	300.0224565804601 	0.06503984313715754 	101351.5509297134
-1.167417417417417 	300.0229406351876 	0.06644217174689414 	101352.1232852768
-1.164914914914915 	300.0234204601186 	0.06783224924294935 	101352.6906447064
-1.162412412412412 	300.0238959684713 	0.0692098213851912 	101353.2529037853
-1.15990990990991 	300.024367076498 	0.07057463642583534 	101353.809959351
-1.157407407407407 	300.0248336996356 	0.07192644237076377 	101354.3617091253
-1.154904904904904 	300.0252957497568 	0.07326499039905512 	101354.9080516151
-1.152402402402403 	300.0257531371229 	0.07459003701058389 	101355.4488859579
-1.1498998998999 	300.0262057750574 	0.07590133981086791 	101355.9841123932
-1.147397397397397 	300.0266535819972 	0.07719865607913436 	101356.5136326738
-1.144894894894895 	300.0270964806272 	0.0784817467471611 	101357.037350219
-1.142392392392392 	300.0275343944153 	0.07975037675922184 	101357.5551696339
-1.13988988988989 	300.027967244573 	0.08100431271826899 	101358.066995791
-1.137387387387387 	300.0283949495935 	0.08224332614959058 	101358.5727337241
-1.134884884884885 	300.0288174270579 	0.08346719401118136 	101359.0722892006
-1.132382382382382 	300.0292345967153 	0.08467569339750876 	101359.5655700627
-1.12987987987988 	300.0296463812224 	0.08586859977243161 	101360.052486749
-1.127377377377377 	300.0300527061435 	0.08704569050869099 	101360.5329519156
-1.124874874874875 	300.0304534988043 	0.0882067461880984 	101361.0068794744
-1.122372372372372 	300.0308486868647 	0.08935155023867043 	101361.4741834256
-1.11986986986987 	300.0312381982069 	0.09047989349294862 	101361.9347777395
-1.117367367367367 	300.0316219605229 	0.09159157387889752 	101362.3885764129
-1.114864864864865 	300.0319999023744 	0.09268639126557719 	101362.8354944703
-1.112362362362362 	300.0323719536482 	0.09376414766611271 	101363.2754486162
-1.10985985985986 	300.0327380453976 	0.09482464824201206 	101363.7083571739
-1.107357357357357 	300.0330981105955 	0.09586769928414962 	101364.1341405214
-1.104854854854855 	300.033452083252 	0.09689310822917432 	101364.5527206267
-1.102352352352353 	300.033799898932 	0.09790068678832695 	101364.9640211822
-1.09984984984985 	300.0341414945166 	0.09889025010615204 	101365.3679673087
-1.097347347347347 	300.0344768073595 	0.09986161503566167 	101365.7644850347
-1.094844844844845 	300.0348057762117 	0.1008146030919344 	101366.1535018425
-1.092342342342342 	300.0351283406536 	0.1017490398484181 	101366.5349461741
-1.08983983983984 	300.0354444416699 	0.1026647530353425 	101366.9087481412
-1.087337337337337 	300.0357540216919 	0.1035615750695828 	101367.2748396814
-1.084834834834835 	300.0360570238522 	0.104439342412939 	101367.6331534802
-1.082332332332332 	300.0363533926885 	0.1052978930678568 	101367.9836237444
-1.07982982982983 	300.03664307345 	0.1061370683397991 	101368.3261858471
-1.077327327327327 	300.036926012897 	0.1069567151546352 	101368.6607767627
-1.074824824824825 	300.0372021596582 	0.1077566839369531 	101368.9873356301
-1.072322322322323 	300.0374714629237 	0.1085368275601853 	101369.3058023233
-1.06981981981982 	300.0377338735291 	0.1092970037299584 	101369.6161185923
-1.067317317317317 	300.0379893434127 	0.1100370732265227 	101369.9182277223
-1.064814814814815 	300.038237825251 	0.1107568989375806 	101370.2120734963
-1.062312312312312 	300.0384792734357 	0.1114563489290817 	101370.4976019633
-1.05980980980981 	300.0387136432295 	0.1121352942162571 	101370.7747603139
-1.057307307307307 	300.0389408915308 	0.1127936091955003 	101371.0434973617
-1.054804804804805 	300.0391609775621 	0.1134311751131929 	101371.3037648362
-1.052302302302302 	300.0393738606489 	0.1140478758719714 	101371.5555146523
-1.0497997997998 	300.0395795015293 	0.1146435977233728 	101371.7987004931
-1.047297297297297 	300.0397778634416 	0.1152182322837677 	101372.0332785923
-1.044794794794795 	300.0399689095213 	0.1157716741332596 	101372.2592051705
-1.042292292292292 	300.0401526046092 	0.1163038217949645 	101372.4764390625
-1.03978978978979 	300.0403289152318 	0.1168145777106596 	101372.6849407361
-1.037287287287287 	300.0404978080676 	0.1173038462119238 	101372.8846701788
-1.034784784784785 	300.0406592527424 	0.117771537271343 	101373.0755911757
-1.032282282282283 	300.0408132193994 	0.1182175657336614 	101373.2576691889
-1.02977977977978 	300.040959678261 	0.1186418489623926 	101373.4308694897
-1.027277277277277 	300.0410986044929 	0.1190443097842182 	101373.5951614643
-1.024774774774775 	300.0412299730339 	0.1194248736456873 	101373.7505147565
-1.022272272272272 	300.0413537566479 	0.1197834682410615 	101373.8968985068
-1.01976976976977 	300.0414699327107 	0.12012002865713 	101374.0342872311
-1.017267267267267 	300.0415784813995 	0.1204344931888721 	101374.1626559483
-1.014764764764765 	300.0416793832825 	0.1207268028714518 	101374.2819792731
-1.012262262262262 	300.0417726205471 	0.1209969066614627 	101374.3922375395
-1.00975975975976 	300.0418581731473 	0.1212447547248679 	101374.493410572
-1.007257257257257 	300.0419360228349 	0.1214702977143656 	101374.58547665
-1.004754754754755 	300.0420061607162 	0.1216734954177272 	101374.6684205588
-1.002252252252252 	300.0420685764154 	0.1218543101925839 	101374.7422273466
-0.9997497497497498 	300.0421232517101 	0.1220127047433003 	101374.8068800154
-0.9972472472472473 	300.0421701731551 	0.122148652737743 	101374.8623689277
-0.9947447447447449 	300.0422093346772 	0.1222621315206581 	101374.9086856838
-0.9922422422422421 	300.0422407331522 	0.1223531153501048 	101374.9458178546
-0.9897397397397399 	300.0422643685017 	0.1224215890468046 	101374.9737599364
-0.9872372372372376 	300.0422802340086 	0.1224675449596482 	101374.9925102045
-0.9847347347347346 	300.0422883140651 	0.1224909698010677 	101375.0020614847
-0.9822322322322323 	300.0422886039185 	0.122491856186539 	101375.0024109268
-0.9797297297297296 	300.0422811131206 	0.1224702070441054 	101374.9935608776
-0.9772272272272275 	300.0422658522858 	0.1224260219762894 	101374.9755101902
-0.9747247247247248 	300.0422428241992 	0.1223593042006181 	101374.9482595301
-0.9722222222222224 	300.0422120253635 	0.122270072087153 	101374.9118178657
-0.9697197197197196 	300.0421734492788 	0.1221583444167795 	101374.8661930414
-0.9672172172172175 	300.0421270966137 	0.1220241340688692 	101374.8113887749
-0.9647147147147147 	300.0420729872387 	0.121867466110572 	101374.74741551
-0.9622122122122124 	300.0420111502414 	0.121688377223865 	101374.6742897013
-0.9597097097097099 	300.0419416018424 	0.1214868972193949 	101374.5920233312
-0.9572072072072073 	300.041864341667 	0.1212630531228152 	101374.5006258322
-0.9547047047047047 	300.0417793687492 	0.1210168880273604 	101374.4001149673
-0.9522022022022023 	300.0416866917985 	0.1207484558431704 	101374.2905149838
-0.9496996996996998 	300.0415863257882 	0.1204577978720801 	101374.1718422483
-0.9471971971971973 	300.0414782938443 	0.1201449520956353 	101374.0441090081
-0.9446946946946947 	300.0413626371746 	0.1198099882485967 	101373.9073452945
-0.9421921921921923 	300.0412393965547 	0.1194529870758824 	101373.761588725
-0.93968968968969 	300.041108580276 	0.1190739900967791 	101373.6068528841
-0.9371871871871872 	300.0409701868066 	0.1186730439859715 	101373.4431508047
-0.9346846846846848 	300.0408242466186 	0.1182502631088785 	101373.2705356556
-0.9321821821821823 	300.0406707909667 	0.1178057473444013 	101373.0890555145
-0.9296796796796799 	300.0405098153999 	0.1173395134974947 	101372.8987063973
-0.9271771771771771 	300.0403413431017 	0.1168516279984183 	101372.699507723
-0.9246746746746748 	300.0401654627797 	0.1163422731429755 	101372.4915506991
-0.9221721721721724 	300.0399822277177 	0.1158115504513908 	101372.2748841143
-0.9196696696696698 	300.0397916139171 	0.1152594252507006 	101372.049470043
-0.9171671671671672 	300.0395936547518 	0.1146860026935722 	101371.815345388
-0.9146646646646649 	300.0393884720277 	0.1140915657044683 	101371.572657712
-0.9121621621621623 	300.039176093655 	0.1134762004717396 	101371.3214469161
-0.9096596596596597 	300.0389564342752 	0.1128397802662596 	101371.0616194946
-0.9071571571571573 	300.0387295391208 	0.1121824614701093 	101370.7932353499
-0.9046546546546547 	300.0384956005543 	0.1115046807723389 	101370.5165266662
-0.9021521521521524 	300.0382546451082 	0.1108065091928637 	101370.2315275775
-0.8996496496496498 	300.038006513211 	0.1100876549158197 	101369.9380505049
-0.8971471471471473 	300.0377512576983 	0.1093482949400503 	101369.6361581598
-0.894644644644645 	300.0374891886626 	0.1085891157901442 	101369.3262165931
-0.892142142142142 	300.0372203718508 	0.1078102547213862 	101369.0083021683
-0.8896396396396397 	300.0369445215016 	0.1070111368267527 	101368.6820757658
-0.8871371371371374 	300.0366616162287 	0.106191798078944 	101368.3475113713
-0.8846346346346349 	300.0363721257764 	0.1053532969025118 	101368.0051634947
-0.8821321321321324 	300.0360762823839 	0.104496118666272 	101367.6553056317
-0.8796296296296297 	300.0357736507068 	0.1036193280831921 	101367.2974222802
-0.8771271271271271 	300.0354639323974 	0.1027223720150954 	101366.931160685
-0.8746246246246248 	300.0351477049928 	0.1018066086912742 	101366.5572038408
-0.8721221221221224 	300.0348256390298 	0.1008734999523583 	101366.1763441366
-0.8696196196196196 	300.0344973447296 	0.09992213819288698 	101365.7881199743
-0.8671171171171175 	300.0341619418529 	0.09895063949087188 	101365.3914907115
-0.8646146146146148 	300.0338196818784 	0.0979597246424424 	101364.9867546939
-0.8621121121121121 	300.0334718930509 	0.09695242970044224 	101364.5754824418
-0.8596096096096097 	300.0331189799036 	0.09592957065435093 	101364.1581512971
-0.857107107107107 	300.0327595869771 	0.09488802899561288 	101363.7331581174
-0.8546046046046049 	300.0323926196698 	0.09382547037877019 	101363.2992095594
-0.8521021021021022 	300.0320192811512 	0.09274486023225148 	101362.8577296709
-0.8495995995995997 	300.0316417358649 	0.09165117875124634 	101362.411277342
-0.8470970970970974 	300.0312599143713 	0.09054408012867549 	101361.9597686261
-0.8445945945945946 	300.030871213608 	0.08941745824906999 	101361.5001250617
-0.8420920920920922 	300.0304741044815 	0.08826798079633305 	101361.0305406215
-0.8395895895895897 	300.0300708234979 	0.08710118406468753 	101360.5536619767
-0.8370870870870872 	300.029664945952 	0.08592548813389893 	101360.0737156873
-0.8345845845845846 	300.0292565364188 	0.0847407689944898 	101359.5907751278
-0.8320820820820823 	300.0288414452267 	0.08353700173254534 	101359.0999325852
-0.8295795795795798 	300.0284163857111 	0.08230657063056591 	101358.5973044888
-0.8270770770770772 	300.0279836964395 	0.08105550269404818 	101358.0856595782
-0.8245745745745746 	300.0275493602742 	0.07979835737287752 	101357.5720721444
-0.8220720720720721 	300.0271159569911 	0.07854109785010582 	101357.0595883497
-0.8195695695695699 	300.0266789052882 	0.07727222985557998 	101356.5427877197
-0.817067067067067 	300.0262310742972 	0.0759743640938122 	101356.0132403098
-0.8145645645645651 	300.0257711122718 	0.0746446248773743 	101355.4693532865
-0.8120620620620621 	300.0253060062805 	0.07330064310705023 	101354.9193917519
-0.8095595595595597 	300.0248443223182 	0.07196359795382021 	101354.3734816215
-0.8070570570570572 	300.0243869046477 	0.07063518804701222 	101353.8326146353
-0.8045545545545546 	300.0239250558681 	0.06929336327802767 	101353.2865031323
-0.8020520520520523 	300.023448716336 	0.06791301014365253 	101352.7232560399
-0.7995495495495494 	300.0229568273046 	0.06649193745599978 	101352.1416293867
-0.7970470470470474 	300.022459480417 	0.06505605038193495 	101351.5535602677
-0.7945445445445446 	300.0219692245041 	0.06363718708759901 	101350.9738831178
-0.7920420420420423 	300.021489384818 	0.06224347252621532 	101350.4065211165
-0.7895395395395397 	300.021010237117 	0.06084968267377781 	101349.8399700878
-0.7870370370370371 	300.02051676947 	0.05941724845727825 	101349.2564818861
-0.7845345345345348 	300.020001515185 	0.05792726802117716 	101348.6472368476
-0.7820320320320323 	300.0194715728094 	0.05639850495639823 	101348.0206369713
-0.7795295295295296 	300.0189437917239 	0.05487485308683255 	101347.3966062754
-0.7770270270270272 	300.0184318780781 	0.05339188883388683 	101346.7913432959
-0.7745245245245247 	300.0179356159784 	0.05194878397449145 	101346.204582199
-0.7720220220220222 	300.0174404198398 	0.05050706484451462 	101345.6190713215
-0.7695195195195199 	300.0169273736411 	0.04901694974757967 	101345.0124479572
-0.767017017017017 	300.0163864661508 	0.04745224194656044 	101344.3728852036
-0.7645145145145147 	300.0158238828222 	0.04582960079604839 	101343.7077071146
-0.7620120120120122 	300.0152585495459 	0.04419943641626378 	101343.0392949653
-0.7595095095095097 	300.0147104199305 	0.04261492041724264 	101342.3912359618
-0.7570070070070072 	300.0141882406717 	0.04109937998162008 	101341.7738607043
-0.7545045045045048 	300.0136842622734 	0.03963193166936644 	101341.1779963947
-0.7520020020020022 	300.0131784842833 	0.03815863603036362 	101340.5799919368
-0.7494994994994997 	300.0126494192929 	0.0366214538562457 	101339.9544462563
-0.7469969969969972 	300.0120853384317 	0.03498873727311557 	101339.2875022839
-0.7444944944944945 	300.0114903549582 	0.03327180604707404 	101338.5840343777
-0.7419919919919924 	300.0108826510476 	0.03152023578336725 	101337.8655461616
-0.7394894894894897 	300.0102861335051 	0.02979933358150508 	101337.1603021614
-0.7369869869869872 	300.0097199037573 	0.02816150782421801 	101336.4908784952
-0.7344844844844846 	300.0091904428276 	0.02662468025599052 	101335.8649271581
-0.7319819819819822 	300.0086893629356 	0.02516579837139298 	101335.2725216898
-0.7294794794794797 	300.0081968328014 	0.02372993520201115 	101334.6902108039
-0.7269769769769773 	300.0076885395347 	0.02224942450389559 	101334.0892501772
-0.7244744744744747 	300.0071433461824 	0.02066526561630226 	101333.4446556209
-0.721971971971972 	300.00654935864 	0.01894422667165804 	101332.7423738309
-0.7194694694694695 	300.0059070367324 	0.01708766885909332 	101331.9829577937
-0.7169669669669674 	300.0052289338464 	0.01513088299942721 	101331.1812569158
-0.7144644644644647 	300.0045365098151 	0.0131342113834991 	101330.3626464533
-0.711961961961962 	300.0038551385313 	0.01116920269310898 	101329.5571250006
-0.7094594594594597 	300.0032089273918 	0.00930436925419529 	101328.7931901106
-0.7069569569569573 	300.0026170748597 	0.007594821522529547 	101328.0935336279
-0.7044544544544545 	300.0020922844978 	0.006077381451336449 	101327.4731682904
-0.7019519519519523 	300.001640691634 	0.004770129347451171 	101326.9393420977
-0.6994494494494495 	300.001262719088 	0.003674730841772907 	101326.4925505366
-0.6969469469469471 	300.0009544131246 	0.002780195690914641 	101326.1281161067
-0.6944444444444446 	300.0007089047282 	0.002067040926424484 	101325.8379162752
-0.6919419419419421 	300.0005177544131 	0.001511149646653519 	101325.6119727859
-0.6894394394394396 	300.0003720443083 	0.001086925720447658 	101325.4397428696
-0.6869369369369374 	300.0002631709232 	0.0007695957922177959 	101325.3110556004
-0.6844344344344344 	300.0001833484572 	0.0005366845316724165 	101325.2167072897
-0.6819319319319321 	300.0001258702164 	0.0003687899365410946 	101325.1487701236
-0.6794294294294296 	300.0000851869253 	0.0002498273644977547 	101325.1006844217
-0.6769269269269272 	300.0000568607449 	0.0001669119016857403 	101325.0672045622
-0.6744244244244245 	300.0000374469811 	0.0001100259476093901 	101325.0442587778
-0.6719219219219222 	300.0000243415503 	7.158584470608297e-05 	101325.0287692157
-0.6694194194194195 	300.000015622933 	4.598724685630613e-05 	101325.0184645438
-0.6669169169169172 	300.0000099038531 	2.917903654035383e-05 	101325.0117051263
-0.6644144144144146 	300.0000062030578 	1.829213820202391e-05 	101325.0073312376
-0.661911911911912 	300.0000038397349 	1.133305883495972e-05 	101325.0045380698
-0.6594094094094097 	300.0000023497008 	6.941301125729515e-06 	101325.0027770244
-0.656906906906907 	300.0000014218132 	4.203987740316722e-06 	101325.0016804217
-0.6544044044044046 	300.000000850971 	2.518360211542459e-06 	101325.001005764
-0.6519019019019021 	300.0000005039075 	1.492502285521887e-06 	101325.0005955479
-0.6493993993993996 	300.0000002952996 	8.752864084101881e-07 	101325.0003489622
-0.6468968968968971 	300.0000001712829 	5.08067828053333e-07 	101325.0002023832
-0.6443943943943946 	300.0000000983247 	2.919528814656751e-07 	101325.0001161964
-0.6418918918918921 	300.000000055901 	1.661199703634378e-07 	101325.000066057
-0.6393893893893897 	300.0000000314787 	9.360921319559613e-08 	101325.0000371901
-0.6368868868868871 	300.0000000175364 	5.225170355242065e-08 	101325.0000207387
-0.6343843843843846 	300.0000000096903 	2.889521245670686e-08 	101325.0000114561
-0.6318818818818821 	300.0000000052618 	1.583385466691184e-08 	101325.0000062695
-0.6293793793793795 	300.0000000028868 	8.599146693090039e-09 	101325.0000033991
-0.6268768768768773 	300.000000001568 	4.629111314633752e-09 	101325.0000018252
-0.6243743743743745 	300.0000000008083 	2.471687121141407e-09 	101325.0000009701
-0.6218718718718721 	300.0000000004444 	1.307687459336955e-09 	101325.0000005098
-0.6193693693693696 	300.0000000001698 	6.880381912875919e-10 	101325.0000002642
-0.6168668668668671 	300.0000000000997 	3.576800429497201e-10 	101325.000000134
-0.6143643643643645 	300.0000000000756 	1.856243575007317e-10 	101325.0000000657
-0.6118618618618621 	300.000000000021 	9.365424100233507e-11 	101325.0000000303
-0.6093593593593596 	300.0000000000101 	4.780534656285599e-11 	101325.0000000119
-0.6068568568568571 	300.0000000000027 	2.253844385404451e-11 	101325.0000000025
-0.6043543543543546 	299.9999999999644 	1.068694720164626e-11 	101324.999999998
-0.6018518518518521 	299.9999999999691 	3.623274600451909e-12 	101324.9999999957
-0.5993493493493496 	299.9999999999512 	1.979884755036637e-12 	101324.9999999945
-0.5968468468468471 	299.9999999999577 	1.619048053218267e-12 	101324.9999999941
-0.5943443443443446 	299.9999999999951 	1.302274874169583e-12 	101324.9999999938
-0.591841841841842 	299.9999999999596 	2.253847938951237e-12 	101324.9999999937
-0.5893393393393397 	299.9999999999499 	1.268701445296881e-12 	101324.9999999935
-0.5868368368368371 	299.9999999999993 	2.516255223728104e-12 	101324.9999999932
-0.5843343343343346 	300.0000000000139 	2.795875056127639e-12 	101324.9999999931
-0.5818318318318321 	300.0000000000264 	2.464719235487508e-12 	101324.9999999934
-0.5793293293293297 	299.9999999999868 	2.282428086830447e-12 	101324.9999999935
-0.5768268268268271 	300.0000000000038 	2.090265624711122e-12 	101324.9999999934
-0.5743243243243245 	300.0000000000184 	1.324087659373662e-12 	101324.9999999932
-0.5718218218218221 	300.000000000019 	6.586955826487159e-13 	101324.9999999932
-0.5693193193193196 	300.0000000000387 	3.717388987141393e-13 	101324.999999993
-0.5668168168168171 	299.9999999999853 	9.267098770707341e-13 	101324.999999993
-0.5643143143143147 	299.9999999999512 	6.120988731625514e-13 	101324.999999993
-0.5618118118118121 	300.0000000000117 	1.818245143101907e-12 	101324.9999999931
-0.5593093093093094 	300.0000000000316 	1.016902749260966e-12 	101324.9999999933
-0.5568068068068072 	300.0000000000178 	2.507233631766497e-12 	101324.9999999932
-0.5543043043043046 	300.0000000000202 	1.935981410121702e-12 	101324.999999993
-0.551801801801802 	299.9999999999612 	2.800019561727781e-12 	101324.9999999932
-0.5492992992992995 	299.9999999999967 	1.535297095095353e-12 	101324.9999999935
-0.5467967967967969 	300.0000000000119 	2.530786954014043e-12 	101324.9999999935
-0.5442942942942947 	300.0000000000068 	2.149951069239429e-12 	101324.9999999933
-0.5417917917917919 	299.9999999999646 	3.844674553012368e-12 	101324.9999999932
-0.5392892892892895 	299.9999999999374 	2.083702563769995e-12 	101324.9999999932
-0.536786786786787 	299.9999999999565 	4.045615827982345e-12 	101324.9999999932
-0.5342842842842846 	299.9999999999614 	1.662754723854566e-12 	101324.9999999931
-0.531781781781782 	299.9999999999355 	4.530803499496802e-12 	101324.9999999932
-0.5292792792792794 	299.9999999999314 	1.932335561831066e-12 	101324.9999999931
-0.526776776776777 	299.9999999999175 	4.896888233287122e-12 	101324.9999999929
-0.5242742742742745 	299.9999999999783 	3.409691196687525e-12 	101324.9999999927
-0.521771771771772 	300.00000000002 	6.526440131477349e-12 	101324.9999999926
-0.5192692692692695 	299.9999999999642 	3.77628733300015e-12 	101324.9999999926
-0.516766766766767 	300.0000000000024 	6.237987337187578e-12 	101324.9999999928
-0.5142642642642645 	299.9999999999799 	3.82721584602106e-12 	101324.999999993
-0.511761761761762 	299.9999999999592 	5.100762968149766e-12 	101324.9999999931
-0.5092592592592596 	299.9999999999727 	2.698839274915978e-12 	101324.9999999931
-0.506756756756757 	299.9999999999429 	4.99720912757663e-12 	101324.9999999929
-0.5042542542542544 	299.999999999991 	1.971521855815304e-12 	101324.9999999927
-0.5017517517517521 	300.0000000000242 	3.971100455583858e-12 	101324.9999999924
-0.4992492492492494 	300.0000000000304 	1.025680512445221e-12 	101324.9999999924
-0.496746746746747 	299.9999999999884 	3.38881717228448e-12 	101324.9999999925
-0.4942442442442445 	299.9999999999525 	1.119831262100486e-12 	101324.9999999924
-0.4917417417417421 	299.9999999999475 	3.300779751414351e-12 	101324.9999999927
-0.4892392392392395 	299.9999999999606 	1.720283742685742e-12 	101324.999999993
-0.486736736736737 	299.9999999999627 	3.931788519196688e-12 	101324.9999999928
-0.4842342342342345 	299.9999999999322 	1.040493160867957e-12 	101324.9999999927
-0.481731731731732 	300.0000000000279 	2.603819352253531e-12 	101324.9999999928
-0.4792292292292296 	300.000000000018 	1.592315226390453e-12 	101324.9999999929
-0.4767267267267268 	299.9999999999537 	3.941778457456265e-12 	101324.9999999929
-0.4742242242242246 	299.9999999999933 	2.319872433241369e-12 	101324.9999999929
-0.471721721721722 	299.9999999999584 	3.741115338620311e-12 	101324.9999999927
-0.4692192192192195 	299.9999999999735 	1.791802341964228e-12 	101324.9999999927
-0.4667167167167169 	299.9999999999191 	2.682111277362265e-12 	101324.9999999927
-0.4642142142142145 	299.9999999999944 	1.241296074389418e-12 	101324.9999999926
-0.461711711711712 	300.0000000000131 	2.716260361459415e-12 	101324.9999999926
-0.4592092092092094 	300.0000000000103 	7.221077854720467e-13 	101324.9999999925
-0.456706706706707 	300.0000000000458 	2.397720316808868e-12 	101324.9999999924
-0.4542042042042045 	299.9999999999457 	1.277035596274919e-12 	101324.9999999925
-0.451701701701702 	299.9999999999582 	2.300877118176108e-12 	101324.9999999926
-0.4491991991991995 	299.9999999999627 	1.319806147788467e-12 	101324.9999999924
-0.4466966966966969 	299.9999999999534 	3.799553319947318e-12 	101324.9999999924
-0.4441941941941945 	299.999999999994 	2.207596052128442e-12 	101324.9999999922
-0.441691691691692 	299.9999999999621 	5.570532914337607e-12 	101324.9999999926
-0.4391891891891895 	299.999999999986 	2.056349188196622e-12 	101324.9999999929
-0.436686686686687 	299.9999999999702 	6.210545086250963e-12 	101324.999999993
-0.4341841841841846 	299.9999999999984 	1.541793534141054e-12 	101324.9999999931
-0.431681681681682 	299.9999999999586 	4.939679229401237e-12 	101324.9999999929
-0.4291791791791794 	299.9999999999205 	1.279605067056761e-12 	101324.9999999929
-0.426676676676677 	299.999999999926 	3.55309988012757e-12 	101324.999999993
-0.4241741741741744 	299.9999999999696 	1.22748298515547e-12 	101324.9999999928
-0.421671671671672 	300.000000000001 	3.326966866043065e-12 	101324.9999999929
-0.4191691691691694 	300.0000000000385 	2.119003239830525e-12 	101324.9999999927
-0.4166666666666669 	300.0000000000463 	4.248366045786647e-12 	101324.9999999924
-0.4141641641641645 	299.9999999999432 	3.884547333595459e-12 	101324.9999999921
-0.411661661661662 	300.0000000000033 	4.753700685958525e-12 	101324.9999999923
-0.4091591591591594 	300.000000000009 	3.536880917882267e-12 	101324.9999999922
-0.406656656656657 	299.9999999999505 	4.044221953745735e-12 	101324.9999999924
-0.4041541541541545 	300.0000000000117 	2.40849122974369e-12 	101324.9999999927
-0.401651651651652 	299.9999999999317 	4.43296095592883e-12 	101324.999999993
-0.3991491491491494 	300.0000000000036 	1.019452001813194e-12 	101324.9999999929
-0.396646646646647 	299.9999999999607 	4.791908734941496e-12 	101324.9999999931
-0.3941441441441444 	299.9999999999769 	1.467596544193681e-12 	101324.9999999929
-0.3916416416416419 	299.9999999999354 	4.23903934677549e-12 	101324.9999999928
-0.3891391391391395 	299.9999999999606 	8.811036848423453e-13 	101324.9999999926
-0.3866366366366368 	299.99999999996 	3.47562734011675e-12 	101324.9999999923
-0.3841341341341344 	300.0000000000001 	2.301645963036421e-12 	101324.9999999924
-0.381631631631632 	299.9999999999613 	3.220156030686199e-12 	101324.9999999924
-0.3791291291291294 	300.0000000000025 	2.599476755318489e-12 	101324.9999999923
-0.3766266266266269 	300.0000000000176 	2.885970245777027e-12 	101324.9999999925
-0.3741241241241244 	300.0000000000178 	3.590342025954813e-12 	101324.9999999925
-0.371621621621622 	300.0000000000147 	1.326867003635635e-12 	101324.9999999925
-0.3691191191191194 	300.0000000000007 	3.441184231164515e-12 	101324.9999999922
-0.366616616616617 	300.0000000000049 	1.051600101741652e-12 	101324.9999999923
-0.3641141141141143 	299.999999999977 	3.517335144523486e-12 	101324.9999999922
-0.3616116116116119 	299.9999999999524 	2.012809302854833e-12 	101324.9999999922
-0.3591091091091095 	299.9999999999876 	3.019265682762474e-12 	101324.9999999923
-0.356606606606607 	299.9999999999896 	2.12644954803886e-12 	101324.999999992
-0.3541041041041044 	299.9999999999837 	2.05667946448039e-12 	101324.9999999917
-0.3516016016016019 	300.0000000000042 	2.74545159153849e-12 	101324.9999999916
-0.3490990990990994 	299.9999999999841 	1.277932811948912e-12 	101324.9999999918
-0.346596596596597 	300.0000000000332 	3.467392172511469e-12 	101324.9999999919
-0.3440940940940944 	300.000000000041 	1.768853253540571e-12 	101324.999999992
-0.3415915915915919 	300.0000000000177 	4.048176519463997e-12 	101324.9999999919
-0.3390890890890895 	299.9999999999837 	2.441356155773432e-12 	101324.9999999921
-0.3365865865865869 	300.000000000017 	3.541538396468837e-12 	101324.9999999921
-0.3340840840840844 	300.0000000000013 	1.810693854495646e-12 	101324.9999999921
-0.3315815815815819 	300.0000000000218 	2.284692904895232e-12 	101324.9999999919
-0.3290790790790794 	300.0000000000132 	1.624908026932615e-12 	101324.9999999917
-0.3265765765765769 	299.9999999999391 	2.821573972551197e-12 	101324.999999992
-0.3240740740740744 	299.9999999999985 	2.111198815663319e-12 	101324.9999999917
-0.3215715715715718 	300.0000000000061 	4.421434028263774e-12 	101324.9999999913
-0.3190690690690695 	299.9999999999341 	3.02262868503659e-12 	101324.9999999914
-0.3165665665665668 	299.9999999999882 	4.901079216416869e-12 	101324.9999999917
-0.3140640640640644 	299.9999999999979 	2.673553711765328e-12 	101324.9999999919
-0.311561561561562 	299.9999999999348 	5.526527739957245e-12 	101324.9999999922
-0.3090590590590593 	299.9999999999928 	1.117439634131463e-12 	101324.9999999921
-0.3065565565565568 	300.000000000003 	5.95209395220705e-12 	101324.9999999923
-0.3040540540540545 	300.0000000000119 	1.312068769177686e-12 	101324.9999999923
-0.3015515515515518 	300.0000000000251 	5.910135642608801e-12 	101324.9999999924
-0.2990490490490494 	299.9999999999498 	2.282701020782925e-12 	101324.9999999925
-0.2965465465465469 	299.9999999999847 	4.157072038892856e-12 	101324.9999999923
-0.2940440440440444 	299.9999999999969 	2.637437949228876e-12 	101324.9999999923
-0.2915415415415418 	300.0000000000015 	3.355128606777829e-12 	101324.9999999922
-0.2890390390390395 	300.0000000000014 	3.45977388486959e-12 	101324.9999999922
-0.2865365365365368 	299.9999999999781 	2.773133257758888e-12 	101324.9999999919
-0.2840340340340343 	299.9999999999995 	4.134209044195218e-12 	101324.9999999917
-0.2815315315315318 	299.9999999999367 	2.123649294236876e-12 	101324.999999992
-0.2790290290290295 	299.999999999964 	3.650981015528227e-12 	101324.9999999919
-0.2765265265265269 	300.000000000009 	3.178324202264635e-12 	101324.9999999917
-0.2740240240240244 	300.0000000000266 	3.760385841373306e-12 	101324.9999999915
-0.2715215215215219 	300.000000000011 	4.032030227699314e-12 	101324.9999999917
-0.2690190190190194 	299.9999999999489 	3.7627397737474e-12 	101324.9999999921
-0.2665165165165169 	299.999999999996 	4.524742246439843e-12 	101324.9999999922
-0.2640140140140144 	299.9999999999748 	3.256932087295199e-12 	101324.9999999923
-0.2615115115115119 	299.9999999999982 	5.415646243733174e-12 	101324.9999999921
-0.2590090090090094 	299.9999999999449 	3.254757997174036e-12 	101324.9999999922
-0.2565065065065068 	299.9999999999931 	4.672451060829399e-12 	101324.9999999919
-0.2540040040040044 	299.9999999999986 	4.445276228073389e-12 	101324.9999999922
-0.2515015015015019 	300.0000000000328 	3.759502806986135e-12 	101324.9999999923
-0.2489989989989994 	300.0000000000376 	5.155301921635939e-12 	101324.9999999922
-0.2464964964964968 	299.9999999999934 	2.456414031554833e-12 	101324.9999999923
-0.2439939939939944 	299.9999999999983 	5.326175125810833e-12 	101324.9999999924
-0.2414914914914919 	299.9999999999763 	1.23846983171304e-12 	101324.9999999923
-0.2389889889889893 	300.0000000000026 	5.520709669931557e-12 	101324.9999999923
-0.2364864864864869 	300.0000000000198 	2.62425151884886e-12 	101324.9999999924
-0.2339839839839843 	299.9999999999375 	6.834372983193915e-12 	101324.9999999922
-0.2314814814814819 	299.999999999983 	2.513347556765089e-12 	101324.9999999921
-0.2289789789789792 	299.9999999999328 	5.80690685692277e-12 	101324.9999999924
-0.2264764764764769 	299.9999999999538 	3.100533619121852e-12 	101324.9999999925
-0.2239739739739743 	299.9999999999683 	4.780831437764612e-12 	101324.9999999927
-0.2214714714714718 	299.9999999999483 	3.89031571586128e-12 	101324.9999999926
-0.2189689689689693 	299.9999999999778 	3.435030762089753e-12 	101324.9999999927
-0.2164664664664669 	299.9999999999826 	4.452796402357267e-12 	101324.9999999924
-0.2139639639639643 	299.9999999999415 	2.553165114935463e-12 	101324.9999999926
-0.2114614614614618 	299.9999999999782 	3.860324090995754e-12 	101324.9999999927
-0.2089589589589593 	299.999999999993 	3.83517855988255e-12 	101324.9999999925
-0.2064564564564568 	299.9999999999917 	3.853439921287483e-12 	101324.9999999925
-0.2039539539539543 	299.9999999999236 	4.045134927683463e-12 	101324.9999999926
-0.2014514514514518 	299.9999999999558 	1.213333684543696e-12 	101324.9999999921
-0.1989489489489494 	299.9999999999766 	3.791146580939341e-12 	101324.9999999923
-0.1964464464464468 	299.9999999999935 	9.860812199636134e-13 	101324.9999999927
-0.1939439439439443 	299.9999999999875 	4.549608769405033e-12 	101324.9999999931
-0.1914414414414418 	299.9999999999309 	2.498421517338972e-12 	101324.999999993
-0.1889389389389393 	300.000000000005 	3.936420971805395e-12 	101324.9999999932
-0.1864364364364368 	300.0000000000315 	2.892456408534509e-12 	101324.9999999928
-0.1839339339339343 	299.999999999978 	3.694983178354624e-12 	101324.9999999927
-0.1814314314314318 	299.999999999997 	3.086917803733701e-12 	101324.9999999928
-0.1789289289289293 	299.999999999922 	3.703281314927411e-12 	101324.9999999929
-0.1764264264264268 	299.999999999981 	2.245826776128994e-12 	101324.999999993
-0.1739239239239243 	299.9999999999154 	4.056023432523231e-12 	101324.9999999931
-0.1714214214214218 	299.9999999999867 	7.916203324586548e-13 	101324.9999999927
-0.1689189189189193 	299.9999999999627 	4.347301362767874e-12 	101324.9999999927
-0.1664164164164168 	300.0000000000077 	5.951044902474496e-13 	101324.9999999923
-0.1639139139139143 	299.9999999999932 	6.310478967909663e-12 	101324.9999999928
-0.1614114114114118 	300.0000000000288 	2.036982060607911e-12 	101324.9999999925
-0.1589089089089093 	299.9999999999964 	8.139926194243816e-12 	101324.9999999927
-0.1564064064064068 	299.9999999999894 	3.031456679789519e-12 	101324.9999999927
-0.1539039039039043 	299.999999999994 	8.065540401932604e-12 	101324.9999999927
-0.1514014014014018 	300.0000000000229 	2.754090068360743e-12 	101324.9999999929
-0.1488988988988993 	299.9999999999989 	7.557324067316975e-12 	101324.9999999927
-0.1463963963963968 	300.0000000000063 	1.336196919167051e-12 	101324.9999999929
-0.1438938938938943 	299.9999999999607 	7.046819742361077e-12 	101324.9999999929
-0.1413913913913918 	299.9999999999389 	2.090882503683307e-12 	101324.9999999928
-0.1388888888888893 	299.9999999999833 	6.528147444559062e-12 	101324.9999999928
-0.1363863863863868 	299.9999999999098 	3.257563078153678e-12 	101324.9999999928
-0.1338838838838843 	299.9999999999349 	5.231098895427046e-12 	101324.9999999933
-0.1313813813813818 	299.9999999999921 	3.073245687439657e-12 	101324.999999993
-0.1288788788788793 	299.9999999999752 	4.564703347389368e-12 	101324.9999999932
-0.1263763763763768 	299.9999999999706 	2.513585660045792e-12 	101324.9999999933
-0.1238738738738743 	299.9999999999363 	4.935597147896559e-12 	101324.9999999932
-0.1213713713713717 	299.9999999999794 	1.90376385791441e-12 	101324.9999999932
-0.1188688688688693 	300.0000000000056 	5.83578646970337e-12 	101324.999999993
-0.1163663663663668 	299.9999999999217 	1.301282083579752e-12 	101324.999999993
-0.1138638638638643 	299.9999999999939 	5.338669619974663e-12 	101324.999999993
-0.1113613613613618 	299.9999999999876 	5.962498031390627e-13 	101324.9999999929
-0.1088588588588592 	299.9999999999825 	5.541538972601709e-12 	101324.9999999932
-0.1063563563563568 	299.9999999999545 	4.087504714244696e-13 	101324.999999993
-0.1038538538538543 	299.9999999999807 	4.470507435376618e-12 	101324.9999999931
-0.1013513513513517 	300.0000000000154 	9.861268540685532e-13 	101324.9999999931
-0.09884884884884926 	299.999999999944 	3.955418415560307e-12 	101324.999999993
-0.09634634634634676 	299.9999999999162 	1.165718854851886e-12 	101324.9999999931
-0.09384384384384425 	299.9999999999403 	2.871198780097515e-12 	101324.9999999933
-0.09134134134134177 	300.000000000021 	1.737521682423149e-12 	101324.9999999933
-0.08883883883883925 	300.0000000000053 	3.089370900302641e-12 	101324.9999999934
-0.08633633633633674 	299.9999999999631 	1.231129510018401e-12 	101324.9999999935
-0.08383383383383426 	300.000000000007 	1.02759999425105e-12 	101324.9999999937
-0.08133133133133173 	299.9999999999728 	1.838458453406423e-13 	101324.9999999939
-0.07882882882882926 	299.9999999999085 	1.36707385930826e-13 	101324.9999999938
-0.07632632632632676 	299.9999999999646 	2.685143821847735e-13 	101324.9999999939
-0.07382382382382424 	299.9999999999123 	5.946488897811908e-13 	101324.9999999937
-0.07132132132132173 	300.0000000000133 	8.603497785668857e-13 	101324.9999999933
-0.06881881881881925 	299.9999999999737 	1.093977412695878e-13 	101324.9999999933
-0.06631631631631671 	299.9999999999142 	1.832834579781911e-13 	101324.9999999934
-0.06381381381381425 	299.9999999999644 	4.911616555953869e-13 	101324.9999999935
-0.06131131131131173 	299.9999999999655 	5.738127757021467e-14 	101324.9999999933
-0.05880880880880923 	299.9999999999266 	2.749119493970296e-13 	101324.9999999933
-0.05630630630630672 	299.9999999999746 	1.05062521168032e-13 	101324.9999999933
-0.05380380380380424 	300.0000000000129 	7.344242255882796e-13 	101324.9999999933
-0.05130130130130173 	300.000000000009 	1.437950876192404e-12 	101324.9999999933
-0.04879879879879922 	299.9999999999514 	1.96087411154416e-12 	101324.9999999933
-0.04629629629629672 	299.9999999999443 	1.237974354216243e-12 	101324.9999999933
-0.04379379379379422 	299.9999999999304 	1.569702670512942e-12 	101324.9999999931
-0.04129129129129173 	299.9999999999854 	1.313074370324796e-12 	101324.9999999932
-0.03878878878878922 	299.9999999999877 	1.515382214759987e-12 	101324.9999999929
-0.03628628628628671 	299.9999999999862 	7.495232306009982e-13 	101324.9999999931
-0.03378378378378422 	299.9999999999347 	4.664620318343954e-13 	101324.999999993
-0.03128128128128172 	299.9999999999699 	1.196054047830599e-12 	101324.9999999931
-0.02877877877877922 	299.9999999999691 	2.828126270803674e-13 	101324.9999999932
-0.0262762762762767 	299.9999999999177 	3.338423100403026e-13 	101324.999999993
-0.02377377377377422 	300.0000000000193 	9.792500956297277e-14 	101324.9999999932
-0.0212712712712717 	299.9999999999182 	8.178531411849401e-14 	101324.9999999929
-0.01876876876876921 	299.9999999999725 	4.005249216382036e-15 	101324.9999999927
-0.01626626626626671 	300.000000000011 	2.964981827357981e-13 	101324.9999999928
-0.0137637637637642 	299.9999999999706 	5.282659253916543e-13 	101324.9999999926
-0.0112612612612617 	300.0000000000157 	1.115117590890722e-12 	101324.9999999925
-0.008758758758759198 	299.9999999999978 	5.478153191489117e-13 	101324.9999999927
-0.006256256256256697 	299.9999999999017 	4.498647988878452e-13 	101324.9999999925
-0.003753753753754195 	299.9999999999605 	9.248343815695974e-13 	101324.9999999923
-0.001251251251251693 	299.99999999994 	1.238792693065801e-12 	101324.9999999923
0.00125125125125081 	299.9999999999632 	1.28967333040621e-12 	101324.9999999924
0.003753753753753312 	299.9999999999689 	1.093587902216487e-12 	101324.9999999927
0.006256256256255817 	299.9999999999077 	1.924640001925345e-12 	101324.9999999929
0.008758758758758317 	299.999999999986 	1.840224141519025e-12 	101324.9999999929
0.01126126126126082 	300.0000000000019 	1.482932632659827e-12 	101324.999999993
0.01376376376376332 	299.999999999974 	1.215479142949952e-12 	101324.9999999931
0.01626626626626582 	300.0000000000065 	1.237963389629516e-12 	101324.9999999931
0.01876876876876833 	299.9999999999607 	9.473406142576823e-13 	101324.9999999928
0.02127127127127083 	299.9999999999716 	1.295956612527188e-12 	101324.9999999928
0.02377377377377332 	299.9999999999955 	1.392349753613847e-12 	101324.9999999924
0.02627627627627583 	299.9999999999169 	1.029277906097873e-12 	101324.9999999925
0.02877877877877833 	300.0000000000091 	1.778651362196936e-12 	101324.9999999922
0.03128128128128083 	299.9999999999593 	1.834067917300061e-12 	101324.9999999923
0.03378378378378333 	299.9999999999181 	2.715678581593047e-12 	101324.9999999924
0.03628628628628584 	299.9999999999756 	2.411058127267116e-12 	101324.9999999925
0.03878878878878834 	299.9999999999849 	2.107807103361561e-12 	101324.9999999925
0.04129129129129084 	299.9999999999847 	1.199295553244724e-12 	101324.9999999924
0.04379379379379333 	299.9999999999586 	4.072536302693344e-13 	101324.9999999924
0.04629629629629585 	299.9999999999073 	3.775106998420905e-13 	101324.9999999924
0.04879879879879834 	299.9999999999666 	5.137911345509333e-13 	101324.9999999923
0.05130130130130085 	300.0000000000112 	3.146030186468398e-13 	101324.9999999922
0.05380380380380335 	300.0000000000159 	8.087462518582826e-13 	101324.9999999925
0.05630630630630584 	299.9999999999971 	4.614860022671371e-13 	101324.9999999926
0.05880880880880836 	299.9999999999324 	8.488214002604082e-13 	101324.9999999929
0.06131131131131085 	299.9999999999744 	8.901196292804429e-13 	101324.999999993
0.06381381381381336 	299.9999999999704 	1.54318851050755e-12 	101324.9999999931
0.06631631631631586 	299.9999999999087 	1.544938557059234e-12 	101324.9999999931
0.06881881881881835 	299.9999999999642 	1.833334955978029e-12 	101324.9999999931
0.07132132132132088 	299.9999999999849 	1.16638398665765e-12 	101324.999999993
0.07382382382382337 	299.9999999999156 	1.839749097038866e-12 	101324.9999999931
0.07632632632632587 	299.9999999999727 	2.467660751613146e-12 	101324.9999999932
0.07882882882882837 	299.9999999999466 	3.31690450787378e-12 	101324.999999993
0.08133133133133086 	299.9999999999829 	4.274628606882729e-12 	101324.9999999927
0.08383383383383337 	299.9999999999889 	4.264101405740772e-12 	101324.9999999928
0.08633633633633589 	299.999999999919 	4.373082514989464e-12 	101324.9999999928
0.08883883883883838 	300.0000000000028 	4.674360693442944e-12 	101324.999999993
0.09134134134134086 	299.9999999999792 	4.611157365459126e-12 	101324.9999999927
0.09384384384384339 	299.9999999999124 	5.46038616108686e-12 	101324.9999999924
0.09634634634634588 	299.999999999969 	5.072752349389656e-12 	101324.9999999919
0.09884884884884838 	299.9999999999789 	4.801279566554113e-12 	101324.999999992
0.1013513513513509 	300.0000000000134 	4.493395881901913e-12 	101324.9999999921
0.1038538538538534 	299.9999999999641 	3.922314013333832e-12 	101324.9999999925
0.1063563563563559 	300.0000000000023 	4.453294431117632e-12 	101324.9999999925
0.1088588588588584 	300.0000000000247 	3.675493775980936e-12 	101324.9999999929
0.1113613613613609 	299.9999999999384 	3.338588809975736e-12 	101324.9999999927
0.1138638638638634 	299.9999999999513 	2.881468130298647e-12 	101324.9999999928
0.1163663663663659 	299.9999999999567 	2.681112805716903e-12 	101324.9999999925
0.1188688688688684 	299.9999999999814 	2.402964237387097e-12 	101324.9999999926
0.1213713713713709 	300.0000000000065 	1.988537851280387e-12 	101324.9999999927
0.1238738738738734 	299.9999999999388 	1.648304986661496e-12 	101324.9999999928
0.1263763763763759 	299.999999999987 	1.448792172359899e-12 	101324.999999993
0.1288788788788784 	299.999999999987 	2.157813737142065e-12 	101324.9999999929
0.1313813813813809 	299.9999999999844 	2.827066729393969e-12 	101324.9999999928
0.1338838838838834 	299.9999999999789 	2.767170220795235e-12 	101324.9999999928
0.1363863863863859 	300.0000000000126 	2.7089084544958e-12 	101324.9999999927
0.1388888888888884 	300.0000000000354 	3.384910066873784e-12 	101324.9999999926
0.1413913913913909 	300.0000000000064 	3.136760848770484e-12 	101324.9999999927
0.1438938938938934 	299.9999999999946 	3.17043125227262e-12 	101324.9999999927
0.1463963963963959 	299.9999999999612 	1.839017221807509e-12 	101324.9999999925
0.1488988988988985 	299.9999999999241 	3.481012076568299e-12 	101324.9999999922
0.1514014014014009 	299.999999999975 	2.115064889749181e-12 	101324.999999992
0.1539039039039035 	299.9999999999704 	3.609908273970814e-12 	101324.9999999924
0.1564064064064059 	299.9999999999405 	7.441028516083195e-13 	101324.9999999928
0.1589089089089084 	299.9999999999794 	3.476576774774367e-12 	101324.9999999927
0.1614114114114109 	299.999999999975 	9.125822938472465e-13 	101324.9999999924
0.1639139139139134 	299.9999999999213 	2.9707917574598e-12 	101324.9999999926
0.166416416416416 	300.0000000000065 	1.823951347803382e-12 	101324.9999999923
0.1689189189189185 	300.0000000000261 	1.450276450047312e-12 	101324.9999999924
0.1714214214214209 	300.0000000000046 	1.994168100026605e-12 	101324.9999999923
0.1739239239239235 	299.9999999999885 	1.235987817291703e-12 	101324.9999999925
0.1764264264264259 	299.999999999976 	3.405371492868902e-12 	101324.9999999924
0.1789289289289284 	300.0000000000027 	1.217526813901535e-12 	101324.9999999925
0.181431431431431 	299.9999999999698 	3.7548941283028e-12 	101324.9999999926
0.1839339339339334 	299.9999999999698 	2.535438032703883e-12 	101324.9999999927
0.186436436436436 	299.9999999999392 	3.816452903096951e-12 	101324.9999999926
0.1889389389389385 	299.9999999999777 	3.16779200739611e-12 	101324.9999999923
0.191441441441441 	299.9999999999745 	2.781391817354895e-12 	101324.9999999921
0.1939439439439434 	299.9999999999324 	3.35577516017498e-12 	101324.999999992
0.196446446446446 	299.999999999959 	1.680038050662057e-12 	101324.9999999919
0.1989489489489485 	299.9999999999648 	3.802697482147465e-12 	101324.9999999917
0.2014514514514509 	299.9999999999881 	1.220557135519772e-12 	101324.9999999915
0.2039539539539535 	299.9999999999961 	2.106662265161846e-12 	101324.9999999919
0.2064564564564559 	299.9999999999584 	1.487177461024433e-12 	101324.9999999923
0.2089589589589585 	299.9999999999902 	2.602751625051401e-12 	101324.9999999925
0.211461461461461 	299.9999999999433 	3.08802082793452e-12 	101324.9999999927
0.2139639639639635 	299.9999999999781 	2.739703250566471e-12 	101324.9999999926
0.2164664664664659 	299.9999999999981 	3.6967840245381e-12 	101324.9999999926
0.2189689689689684 	299.999999999999 	1.988061109238967e-12 	101324.9999999925
0.221471471471471 	299.999999999995 	4.559675286953726e-12 	101324.9999999924
0.2239739739739735 	299.9999999999623 	2.782427621894689e-12 	101324.9999999923
0.226476476476476 	299.9999999999828 	4.657956239518026e-12 	101324.9999999921
0.2289789789789785 	299.9999999999946 	3.664074065282446e-12 	101324.9999999926
0.231481481481481 	299.9999999999908 	3.812476402435145e-12 	101324.999999993
0.2339839839839835 	299.9999999999872 	3.51533479037424e-12 	101324.999999993
0.236486486486486 	300.0000000000238 	2.045091992022054e-12 	101324.9999999931
0.2389889889889885 	300.0000000000022 	3.579841351669967e-12 	101324.9999999928
0.241491491491491 	299.9999999999325 	2.195466860159955e-12 	101324.9999999929
0.2439939939939935 	299.9999999999786 	5.340618517901419e-12 	101324.9999999926
0.246496496496496 	299.9999999999944 	3.722227577377457e-12 	101324.9999999928
0.2489989989989985 	300.0000000000335 	5.735370614278927e-12 	101324.9999999927
0.251501501501501 	300.0000000000295 	4.692203846929239e-12 	101324.9999999924
0.2540040040040035 	299.9999999999965 	4.046771600809535e-12 	101324.9999999926
0.256506506506506 	300.0000000000245 	4.304351815040728e-12 	101324.9999999927
0.2590090090090086 	299.9999999999308 	2.353355634748217e-12 	101324.9999999924
0.261511511511511 	299.9999999999974 	4.299968877231914e-12 	101324.9999999923
0.2640140140140135 	299.9999999999925 	2.068474519906069e-12 	101324.9999999922
0.2665165165165161 	299.9999999999432 	4.341009195183427e-12 	101324.9999999924
0.2690190190190185 	300.0000000000134 	3.168512562211572e-12 	101324.9999999926
0.271521521521521 	300.0000000000165 	3.438807732710046e-12 	101324.9999999928
0.2740240240240235 	300.0000000000173 	3.342338263131594e-12 	101324.9999999929
0.276526526526526 	300.0000000000099 	2.206442172135019e-12 	101324.9999999931
0.2790290290290286 	299.9999999999553 	3.004442819709622e-12 	101324.9999999928
0.281531531531531 	299.9999999999412 	1.753806419045469e-12 	101324.9999999924
0.2840340340340335 	299.9999999999874 	4.186293802725469e-12 	101324.9999999926
0.2865365365365361 	299.9999999999659 	3.106878303576824e-12 	101324.9999999925
0.2890390390390385 	299.9999999999985 	4.331120130820644e-12 	101324.9999999924
0.291541541541541 	299.9999999999987 	4.057789587369509e-12 	101324.9999999926
0.2940440440440436 	299.999999999996 	2.896636719941842e-12 	101324.9999999926
0.296546546546546 	299.9999999999919 	3.755849522845263e-12 	101324.9999999926
0.2990490490490486 	299.9999999999533 	1.817078198610441e-12 	101324.9999999924
0.3015515515515511 	300.0000000000259 	5.152894822704237e-12 	101324.9999999922
0.3040540540540535 	299.9999999999949 	1.336928340048092e-12 	101324.9999999923
0.3065565565565562 	299.9999999999956 	5.419864165522963e-12 	101324.9999999922
0.3090590590590585 	299.9999999999917 	7.153058580576775e-13 	101324.9999999919
0.3115615615615611 	299.9999999999544 	4.991996774024148e-12 	101324.9999999917
0.3140640640640635 	300.0000000000057 	1.783918861766767e-12 	101324.9999999917
0.316566566566566 	299.999999999993 	3.366731002587597e-12 	101324.9999999915
0.3190690690690687 	299.9999999999617 	8.84837157735373e-13 	101324.9999999914
0.3215715715715711 	300.000000000008 	2.418392341594605e-12 	101324.9999999917
0.3240740740740735 	299.9999999999942 	8.613672784860415e-13 	101324.9999999914
0.326576576576576 	299.9999999999151 	1.855767984248412e-12 	101324.999999991
0.3290790790790786 	300.0000000000061 	8.598759688776228e-13 	101324.9999999911
0.3315815815815811 	300.0000000000305 	1.50809765229165e-12 	101324.9999999912
0.3340840840840836 	299.999999999991 	9.530245424941699e-13 	101324.9999999914
0.3365865865865861 	300.0000000000417 	1.988441318468003e-12 	101324.9999999917
0.3390890890890886 	300.0000000000369 	9.13248015154194e-13 	101324.9999999918
0.3415915915915911 	299.9999999999965 	1.95872274514024e-12 	101324.9999999919
0.3440940940940935 	299.9999999999609 	3.936865119206945e-13 	101324.999999992
0.3465965965965962 	300.0000000000323 	1.439827556356084e-12 	101324.999999992
0.3490990990990985 	300.0000000000254 	6.449779926950599e-14 	101324.9999999918
0.3516016016016011 	299.9999999999867 	3.940566409697079e-13 	101324.9999999916
0.3541041041041035 	300.0000000000011 	2.326331986067378e-13 	101324.9999999917
0.3566066066066061 	299.9999999999653 	1.317079752415458e-12 	101324.999999992
0.3591091091091085 	299.9999999999317 	5.526328790395219e-13 	101324.9999999917
0.3616116116116112 	299.9999999999513 	1.44123104370771e-12 	101324.999999992
0.3641141141141137 	299.9999999999462 	1.775929766651282e-12 	101324.999999992
0.3666166166166161 	299.9999999999365 	1.791542989669092e-12 	101324.9999999921
0.3691191191191185 	300.0000000000295 	3.063500027978908e-12 	101324.9999999922
0.371621621621621 	300.0000000000119 	1.547724623135071e-12 	101324.9999999922
0.3741241241241237 	300.0000000000366 	2.318989681121777e-12 	101324.9999999921
0.3766266266266261 	300.0000000000207 	7.250379073314385e-13 	101324.9999999922
0.3791291291291286 	299.9999999999898 	1.810082070540566e-12 	101324.9999999924
0.3816316316316311 	299.9999999999296 	7.916469397808301e-13 	101324.9999999922
0.3841341341341336 	300.0000000000085 	1.648077707928294e-12 	101324.9999999919
0.3866366366366362 	299.9999999999951 	8.941193140951436e-13 	101324.9999999917
0.3891391391391387 	299.9999999999644 	2.184904470830158e-12 	101324.9999999917
0.391641641641641 	299.9999999999947 	8.51305597435843e-13 	101324.9999999916
0.3941441441441436 	300.0000000000064 	9.863977499173195e-13 	101324.9999999917
0.3966466466466462 	300.0000000000001 	2.769072574230852e-13 	101324.9999999919
0.3991491491491486 	299.9999999999574 	4.091046969717637e-13 	101324.9999999921
0.4016516516516512 	299.9999999999291 	1.3901915005733e-12 	101324.999999992
0.4041541541541536 	299.9999999999612 	6.125058161935904e-13 	101324.9999999917
0.4066566566566561 	299.9999999999566 	1.454281850177593e-12 	101324.9999999917
0.4091591591591587 	299.9999999999868 	1.261469138178421e-12 	101324.9999999918
0.4116616616616612 	299.9999999999958 	4.551662065613274e-13 	101324.9999999917
0.4141641641641635 	300.0000000000337 	2.076714464588653e-13 	101324.9999999916
0.4166666666666662 	299.9999999999974 	3.769509437078482e-13 	101324.9999999915
0.4191691691691687 	299.9999999999491 	8.504095453824011e-13 	101324.9999999915
0.421671671671671 	300.0000000000069 	2.036378467587272e-12 	101324.9999999915
0.4241741741741737 	299.9999999999785 	1.960282681651945e-12 	101324.9999999917
0.4266766766766761 	299.9999999999613 	2.803234879441409e-12 	101324.9999999921
0.4291791791791785 	300.0000000000138 	2.585929734055263e-12 	101324.9999999924
0.4316816816816812 	300.0000000000089 	2.61918870843524e-12 	101324.9999999925
0.4341841841841836 	299.9999999999864 	2.83108209031781e-12 	101324.9999999922
0.4366866866866862 	299.9999999999337 	1.540042540104812e-12 	101324.9999999921
0.4391891891891885 	299.9999999999909 	2.168923807463774e-12 	101324.9999999921
0.4416916916916913 	299.9999999999866 	1.165873188627671e-12 	101324.999999992
0.4441941941941936 	299.9999999999895 	1.585882731916975e-12 	101324.9999999919
0.4466966966966961 	299.9999999999319 	5.806451061719166e-13 	101324.9999999919
0.4491991991991987 	299.99999999998 	1.187001385025218e-12 	101324.9999999918
0.4517017017017012 	299.9999999999797 	1.104973787580058e-12 	101324.9999999919
0.4542042042042035 	299.9999999999966 	1.13808009354508e-12 	101324.9999999919
0.4567067067067062 	299.9999999999983 	1.668352482435636e-12 	101324.9999999919
0.4592092092092087 	299.9999999999396 	9.519858179115049e-13 	101324.999999992
0.4617117117117112 	300.000000000017 	1.084785864087772e-12 	101324.9999999922
0.4642142142142137 	299.9999999999683 	9.857782675230414e-13 	101324.9999999923
0.4667167167167162 	299.9999999999937 	1.164613699791994e-12 	101324.9999999921
0.4692192192192187 	299.9999999999655 	1.55291096326575e-12 	101324.9999999922
0.4717217217217212 	300.0000000000084 	1.628412515682986e-12 	101324.9999999924
0.4742242242242236 	299.9999999999657 	2.360112179126618e-12 	101324.9999999923
0.4767267267267262 	299.9999999999789 	2.044536959378669e-12 	101324.9999999923
0.4792292292292287 	300.0000000000161 	2.212448306646075e-12 	101324.9999999923
0.4817317317317312 	300.0000000000269 	2.143553882852417e-12 	101324.9999999924
0.4842342342342336 	299.999999999987 	1.776386972262381e-12 	101324.9999999924
0.4867367367367362 	299.999999999966 	1.47806096564508e-12 	101324.9999999924
0.4892392392392387 	300.0000000000244 	5.335962828024074e-13 	101324.9999999925
0.4917417417417412 	300.000000000004 	2.018187429142279e-12 	101324.9999999927
0.4942442442442437 	299.9999999999259 	1.295850590173157e-12 	101324.9999999924
0.4967467467467462 	299.9999999999421 	2.923913275296037e-12 	101324.9999999923
0.4992492492492487 	299.999999999936 	1.147215838415065e-12 	101324.999999992
0.5017517517517511 	299.9999999999617 	2.29329044656646e-12 	101324.9999999919
0.5042542542542537 	299.9999999999715 	1.329085174220921e-12 	101324.999999992
0.5067567567567562 	299.9999999999558 	1.107994885488192e-12 	101324.9999999919
0.5092592592592589 	299.9999999999706 	1.235311924384466e-12 	101324.9999999918
0.5117617617617611 	299.9999999999645 	1.010925960307407e-12 	101324.9999999915
0.5142642642642637 	299.9999999999886 	1.911772811315842e-12 	101324.9999999916
0.5167667667667663 	299.9999999999747 	1.729553185444219e-12 	101324.9999999915
0.5192692692692688 	299.9999999999322 	3.515171205679469e-12 	101324.9999999919
0.5217717717717714 	299.9999999999516 	2.890847677035296e-12 	101324.9999999921
0.5242742742742736 	299.9999999999518 	2.55064229205089e-12 	101324.9999999922
0.5267767767767763 	299.9999999999699 	3.01689111176891e-12 	101324.9999999925
0.5292792792792789 	299.9999999999516 	1.66647156522235e-12 	101324.9999999927
0.5317817817817813 	299.9999999999264 	1.756437261676803e-12 	101324.9999999928
0.5342842842842837 	300.0000000000145 	8.450076989816233e-13 	101324.9999999928
0.5367867867867864 	300.0000000000031 	1.581833016461058e-12 	101324.9999999926
0.5392892892892888 	299.9999999999687 	6.977914168466504e-13 	101324.9999999924
0.5417917917917912 	300.0000000000015 	8.09642711775464e-13 	101324.9999999923
0.5442942942942938 	299.9999999999861 	4.416562055139865e-13 	101324.9999999921
0.5467967967967964 	299.9999999999584 	5.101724644925539e-13 	101324.999999992
0.5492992992992988 	299.9999999999555 	7.937009661437051e-13 	101324.999999992
0.5518018018018012 	299.9999999999553 	7.897166118342401e-13 	101324.9999999921
0.5543043043043039 	300.0000000000157 	8.761299881628419e-13 	101324.9999999922
0.5568068068068063 	299.9999999999923 	9.080783786123726e-13 	101324.9999999923
0.5593093093093087 	299.9999999999291 	1.806683888021757e-12 	101324.9999999924
0.5618118118118114 	299.9999999999694 	4.173130091594997e-13 	101324.9999999927
0.5643143143143137 	299.9999999999579 	8.744014184074555e-13 	101324.999999993
0.5668168168168163 	299.9999999999928 	7.33363946833511e-13 	101324.9999999933
0.5693193193193188 	300.0000000000256 	1.231841670581604e-12 	101324.9999999932
0.5718218218218213 	300.0000000000223 	9.607172187748522e-13 	101324.9999999931
0.5743243243243239 	300.0000000000109 	1.727691752444208e-12 	101324.999999993
0.5768268268268262 	300.0000000000047 	1.65097624580384e-12 	101324.9999999929
0.5793293293293288 	299.9999999999523 	2.629221363043069e-12 	101324.9999999929
0.5818318318318314 	299.9999999999359 	2.688770576933705e-12 	101324.9999999927
0.5843343343343338 	299.9999999999881 	2.675179120895846e-12 	101324.9999999926
0.5868368368368363 	299.9999999999843 	2.940030097745195e-12 	101324.9999999928
0.5893393393393387 	299.9999999999607 	1.387735631837194e-12 	101324.999999993
0.5918418418418413 	299.9999999999549 	2.195938382474316e-12 	101324.999999993
0.5943443443443439 	300.0000000000123 	1.082682926324218e-12 	101324.999999993
0.5968468468468463 	300.000000000013 	1.866640208802928e-12 	101324.9999999928
0.5993493493493487 	300.0000000000269 	8.909089639011235e-13 	101324.9999999927
0.6018518518518514 	299.9999999999848 	1.618574565142067e-12 	101324.9999999926
0.6043543543543537 	299.9999999999984 	5.654341089313788e-13 	101324.9999999924
0.6068568568568564 	299.9999999999885 	1.217319647532915e-12 	101324.9999999922
0.6093593593593587 	299.9999999999482 	3.862717781840057e-13 	101324.9999999924
0.6118618618618614 	299.9999999999413 	1.001391809284479e-12 	101324.9999999927
0.6143643643643638 	300.0000000000152 	1.579808385696552e-12 	101324.9999999928
0.6168668668668662 	299.9999999999939 	1.426317370339905e-12 	101324.9999999928
0.6193693693693688 	299.9999999999674 	1.626668260849215e-12 	101324.9999999927
0.6218718718718714 	299.9999999999735 	1.597328652103118e-12 	101324.9999999927
0.6243743743743737 	299.9999999999499 	1.340498579100203e-12 	101324.9999999926
0.6268768768768762 	299.9999999999468 	1.260164714969591e-12 	101324.9999999929
0.629379379379379 	299.9999999999638 	4.116819485328599e-13 	101324.999999993
0.6318818818818812 	299.9999999999818 	8.215734553488462e-13 	101324.999999993
0.6343843843843838 	300.0000000000138 	8.78717568003901e-13 	101324.999999993
0.6368868868868864 	299.9999999999882 	1.105917453311049e-12 	101324.9999999932
0.6393893893893888 	299.9999999999424 	2.348735306013621e-12 	101324.9999999933
0.6418918918918912 	300.000000000003 	2.336507145286011e-12 	101324.9999999934
0.6443943943943939 	299.9999999999842 	3.471192441408331e-12 	101324.9999999935
0.6468968968968963 	299.9999999999882 	3.293857329001836e-12 	101324.9999999935
0.6493993993993988 	299.9999999999823 	2.865892846803326e-12 	101324.9999999936
0.6519019019019012 	299.9999999999808 	2.540923834595155e-12 	101324.9999999936
0.6544044044044038 	299.9999999999222 	2.611589596621744e-12 	101324.9999999934
0.6569069069069065 	299.9999999999618 	1.674331855573771e-12 	101324.9999999932
0.6594094094094087 	299.9999999999709 	3.189276829985973e-12 	101324.9999999931
0.6619119119119113 	299.9999999999668 	1.98700333694388e-12 	101324.9999999928
0.664414414414414 	300.0000000000036 	3.813167794056857e-12 	101324.9999999926
0.6669169169169162 	300.0000000000146 	2.957018789321287e-12 	101324.9999999926
0.6694194194194188 	299.9999999999874 	4.357032927735826e-12 	101324.9999999926
0.6719219219219214 	299.9999999999386 	3.43074031658831e-12 	101324.9999999925
0.674424424424424 	299.9999999999795 	3.877970100402476e-12 	101324.9999999929
0.6769269269269262 	299.9999999999374 	3.002074584398196e-12 	101324.999999993
0.679429429429429 	300.0000000000002 	3.090535757329997e-12 	101324.9999999929
0.6819319319319311 	299.9999999999852 	2.142359471908548e-12 	101324.999999993
0.6844344344344341 	299.9999999999968 	2.294794156270572e-12 	101324.9999999932
0.686936936936936 	299.9999999999935 	1.319501126165586e-12 	101324.9999999933
0.6894394394394392 	299.9999999999889 	1.778823560132819e-12 	101324.9999999933
0.6919419419419413 	299.9999999999892 	1.610391876194571e-12 	101324.9999999935
0.694444444444444 	299.9999999999521 	1.474106794071067e-12 	101324.9999999934
0.6969469469469463 	299.9999999999447 	1.509973134633058e-12 	101324.9999999935
0.6994494494494489 	299.9999999999364 	9.143941819677461e-13 	101324.9999999936
0.7019519519519515 	299.9999999999894 	1.840512764802766e-12 	101324.9999999938
0.7044544544544538 	299.9999999999625 	1.581192330938156e-12 	101324.9999999939
0.7069569569569564 	299.9999999999943 	2.212322171539133e-12 	101324.999999994
0.7094594594594589 	299.9999999999722 	1.506560753216978e-12 	101324.9999999939
0.7119619619619615 	299.9999999999314 	2.413617427383781e-12 	101324.999999994
0.7144644644644638 	299.9999999999593 	9.497409399126246e-13 	101324.999999994
0.7169669669669665 	299.999999999935 	1.660842529351838e-12 	101324.999999994
0.7194694694694688 	299.9999999999935 	6.895000282932349e-13 	101324.999999994
0.7219719719719715 	299.9999999999902 	1.378556966484775e-12 	101324.999999994
0.7244744744744737 	300.0000000000021 	1.135221772483056e-12 	101324.999999994
0.7269769769769764 	299.9999999999945 	1.283647054680607e-12 	101324.9999999939
0.7294794794794791 	299.999999999988 	1.937857422448251e-12 	101324.9999999939
0.7319819819819813 	299.9999999999865 	7.375294775026863e-13 	101324.999999994
0.7344844844844839 	299.9999999999371 	1.364589365213282e-12 	101324.9999999941
0.7369869869869864 	299.9999999999589 	3.491302800255656e-13 	101324.9999999941
0.739489489489489 	299.9999999999494 	8.445040423334418e-13 	101324.9999999939
0.7419919919919914 	299.9999999999444 	1.269788747111065e-12 	101324.9999999938
0.7444944944944939 	299.9999999999827 	2.323832051477612e-12 	101324.9999999938
0.7469969969969963 	299.9999999999758 	1.816137027758371e-12 	101324.999999994
0.7494994994994989 	299.9999999999573 	2.564903482001539e-12 	101324.9999999939
0.7520020020020015 	299.9999999999778 	2.073737058737376e-12 	101324.9999999939
0.7545045045045039 	299.999999999976 	2.376646117657033e-12 	101324.9999999941
0.7570070070070062 	299.9999999999525 	1.124312455804516e-12 	101324.9999999943
0.7595095095095092 	299.99999999994 	1.258791254533673e-12 	101324.9999999946
0.7620120120120112 	300.0000000000008 	8.647278368989863e-13 	101324.9999999948
0.7645145145145138 	299.999999999989 	1.666349466902998e-12 	101324.9999999949
0.7670170170170165 	299.9999999999462 	2.266386669980404e-12 	101324.9999999949
0.7695195195195191 	299.9999999999395 	1.994063127664503e-12 	101324.9999999947
0.7720220220220213 	299.9999999999463 	3.623256434294252e-12 	101324.9999999945
0.7745245245245239 	299.9999999999446 	2.558755262363879e-12 	101324.9999999945
0.7770270270270263 	299.9999999999748 	3.690111380051396e-12 	101324.9999999947
0.779529529529529 	299.9999999999858 	2.415000425089952e-12 	101324.999999995
0.7820320320320313 	299.99999999998 	2.965656225822602e-12 	101324.9999999952
0.784534534534534 	299.9999999999996 	2.585201530937561e-12 	101324.9999999951
0.7870370370370364 	299.9999999999978 	1.767996107696116e-12 	101324.9999999951
0.7895395395395389 	299.9999999999844 	2.353230898077725e-12 	101324.9999999948
0.7920420420420413 	299.9999999999821 	1.521209579750947e-12 	101324.9999999949
0.794544544544544 	299.9999999999854 	3.269965600351009e-12 	101324.999999995
0.7970470470470463 	300.0000000000005 	2.171154213841795e-12 	101324.999999995
0.799549549549549 	299.9999999999856 	3.912904153549088e-12 	101324.999999995
0.8020520520520515 	299.9999999999912 	1.65752834227886e-12 	101324.9999999949
0.8045545545545539 	299.999999999961 	3.454137172155164e-12 	101324.999999995
0.8070570570570563 	299.9999999999855 	2.480811618406631e-12 	101324.999999995
0.8095595595595589 	299.9999999999662 	3.208240871479394e-12 	101324.9999999952
0.8120620620620614 	299.9999999999516 	3.042995186010626e-12 	101324.999999995
0.8145645645645638 	299.999999999995 	2.984263976971466e-12 	101324.9999999948
0.8170670670670666 	299.9999999999898 	3.454886834376686e-12 	101324.9999999948
0.8195695695695689 	299.999999999979 	2.275096990307978e-12 	101324.999999995
0.8220720720720714 	299.9999999999566 	4.361823732636789e-12 	101324.999999995
0.8245745745745739 	299.9999999999982 	2.912713994486259e-12 	101324.9999999947
0.8270770770770765 	299.9999999999781 	4.216846296961717e-12 	101324.9999999944
0.8295795795795788 	299.9999999999604 	3.852347634412335e-12 	101324.9999999942
0.8320820820820815 	300.0000000000124 	4.911684303751303e-12 	101324.9999999943
0.834584584584584 	300.0000000000043 	4.606803814529791e-12 	101324.999999994
0.8370870870870865 	299.9999999999733 	4.429009139159512e-12 	101324.9999999939
0.8395895895895891 	299.9999999999472 	4.842038298533779e-12 	101324.9999999942
0.8420920920920915 	299.999999999955 	3.973458738747772e-12 	101324.9999999946
0.844594594594594 	299.9999999999565 	3.933871408163581e-12 	101324.9999999947
0.8470970970970964 	299.9999999999716 	3.883242661226222e-12 	101324.9999999948
0.8495995995995991 	299.9999999999935 	3.995804540926592e-12 	101324.999999995
0.8521021021021015 	299.9999999999842 	4.501604299822922e-12 	101324.9999999952
0.8546046046046039 	299.9999999999766 	4.111808204977431e-12 	101324.9999999952
0.8571071071071066 	299.9999999999973 	4.981735763469222e-12 	101324.9999999953
0.8596096096096089 	299.9999999999739 	3.437247197594897e-12 	101324.9999999953
0.8621121121121116 	299.9999999999505 	5.883055975357982e-12 	101324.9999999952
0.8646146146146139 	299.9999999999944 	4.040235231523716e-12 	101324.9999999954
0.8671171171171166 	299.999999999978 	5.445551370083374e-12 	101324.9999999955
0.8696196196196189 	299.9999999999565 	4.922102607613502e-12 	101324.9999999955
0.8721221221221216 	299.9999999999852 	5.700480705180189e-12 	101324.9999999954
0.874624624624624 	300.0000000000047 	5.53094947270322e-12 	101324.9999999953
0.8771271271271264 	299.9999999999999 	5.787111684896233e-12 	101324.9999999951
0.879629629629629 	300.0000000000009 	6.813342543279912e-12 	101324.999999995
0.8821321321321317 	299.999999999987 	5.69048666983103e-12 	101324.9999999951
0.8846346346346339 	299.9999999999417 	7.794397380511531e-12 	101324.9999999955
0.8871371371371364 	299.9999999999664 	6.025588273812204e-12 	101324.9999999956
0.8896396396396391 	299.9999999999646 	7.311461761649554e-12 	101324.9999999955
0.8921421421421414 	299.9999999999674 	6.144970871557879e-12 	101324.9999999954
0.8946446446446441 	299.999999999986 	6.144827362056513e-12 	101324.9999999953
0.8971471471471464 	299.9999999999987 	5.947254605548774e-12 	101324.9999999954
0.8996496496496489 	299.9999999999822 	6.140779561806482e-12 	101324.9999999953
0.9021521521521517 	299.9999999999687 	7.305669049760779e-12 	101324.9999999951
0.9046546546546541 	299.9999999999906 	6.562728318459952e-12 	101324.9999999948
0.9071571571571564 	299.9999999999603 	7.218177092388208e-12 	101324.9999999947
0.9096596596596589 	299.9999999999569 	7.099666054648984e-12 	101324.9999999945
0.9121621621621616 	300.0000000000042 	7.302881185141574e-12 	101324.9999999944
0.9146646646646639 	299.9999999999813 	6.873424862579463e-12 	101324.9999999945
0.9171671671671666 	299.9999999999528 	6.522985392037568e-12 	101324.9999999944
0.9196696696696689 	299.9999999999956 	6.935668692555095e-12 	101324.9999999945
0.9221721721721714 	299.9999999999998 	5.373414048811154e-12 	101324.9999999949
0.9246746746746741 	299.9999999999571 	7.466437572648904e-12 	101324.9999999951
0.9271771771771765 	299.9999999999591 	5.573614760777235e-12 	101324.9999999952
0.9296796796796791 	299.9999999999954 	7.524122870434541e-12 	101324.9999999954
0.9321821821821816 	299.9999999999829 	6.686725411902405e-12 	101324.9999999953
0.9346846846846838 	299.9999999999653 	7.952323579048894e-12 	101324.9999999953
0.9371871871871866 	300.0000000000099 	7.80862440438567e-12 	101324.9999999952
0.9396896896896891 	300.0000000000101 	7.931089861129996e-12 	101324.9999999952
0.9421921921921914 	300.0000000000077 	8.211436015026949e-12 	101324.9999999952
0.9446946946946939 	299.9999999999722 	7.838555761342424e-12 	101324.9999999953
0.9471971971971965 	299.9999999999388 	1.033469963446602e-11 	101324.999999995
0.9496996996996991 	299.9999999999665 	8.883161824902245e-12 	101324.9999999948
0.9522022022022016 	299.9999999999796 	9.822684764575787e-12 	101324.9999999948
0.9547047047047038 	299.9999999999809 	8.551124041461486e-12 	101324.9999999948
0.9572072072072064 	299.9999999999769 	9.215659612728059e-12 	101324.9999999949
0.9597097097097093 	299.9999999999703 	9.236532664339855e-12 	101324.9999999949
0.9622122122122114 	299.9999999999646 	8.650230407996429e-12 	101324.9999999948
0.964714714714714 	299.9999999999644 	9.092126789558965e-12 	101324.9999999948
0.9672172172172167 	299.9999999999687 	8.247450543001169e-12 	101324.9999999948
0.969719719719719 	299.9999999999889 	9.118616209027299e-12 	101324.999999995
0.9722222222222214 	299.9999999999773 	8.762762841658786e-12 	101324.9999999952
0.9747247247247239 	299.9999999999736 	8.909596730232189e-12 	101324.9999999951
0.9772272272272267 	299.9999999999993 	8.794320415253518e-12 	101324.999999995
0.9797297297297292 	299.9999999999889 	8.597609386823665e-12 	101324.999999995
0.9822322322322313 	299.9999999999954 	8.888502254489238e-12 	101324.9999999951
0.9847347347347344 	299.9999999999943 	7.349710963294843e-12 	101324.9999999953
0.9872372372372363 	299.9999999999583 	8.979318420930857e-12 	101324.9999999955
0.9897397397397389 	299.9999999999798 	6.961917300410478e-12 	101324.9999999955
0.9922422422422417 	299.9999999999686 	8.792175380200329e-12 	101324.9999999956
0.9947447447447441 	299.9999999999663 	8.001080583397454e-12 	101324.9999999955
0.9972472472472468 	299.9999999999686 	9.119309616067788e-12 	101324.9999999956
0.999749749749749 	299.9999999999665 	8.88789466852242e-12 	101324.9999999955
1.002252252252252 	299.999999999984 	9.012301492431792e-12 	101324.9999999954
1.004754754754754 	299.9999999999918 	8.927740759776536e-12 	101324.9999999951
1.007257257257256 	299.9999999999754 	8.01811926796784e-12 	101324.999999995
1.009759759759759 	299.9999999999646 	9.576629042061969e-12 	101324.9999999949
1.012262262262261 	299.999999999959 	7.796360660610453e-12 	101324.9999999948
1.014764764764764 	299.9999999999395 	9.525360583255897e-12 	101324.9999999946
1.017267267267267 	299.9999999999342 	9.382520019676573e-12 	101324.9999999943
1.019769769769769 	299.9999999999695 	1.030955374056642e-11 	101324.9999999942
1.022272272272272 	299.9999999999771 	9.516798750371651e-12 	101324.9999999942
1.024774774774774 	299.9999999999781 	9.132746382260182e-12 	101324.9999999945
1.027277277277277 	299.9999999999785 	9.350383771446021e-12 	101324.9999999946
1.029779779779779 	299.9999999999997 	8.124531917728837e-12 	101324.9999999946
1.032282282282282 	299.9999999999986 	8.205682639399363e-12 	101324.9999999947
1.034784784784784 	299.999999999991 	7.508756897757945e-12 	101324.9999999948
1.037287287287286 	299.9999999999707 	8.055605402772679e-12 	101324.9999999947
1.039789789789789 	299.9999999999777 	7.993951872259411e-12 	101324.9999999946
1.042292292292291 	300.0000000000076 	7.36085976328885e-12 	101324.9999999946
1.044794794794794 	300.0000000000185 	6.960851537141782e-12 	101324.9999999945
1.047297297297296 	300.0000000000283 	6.214541418337078e-12 	101324.9999999946
1.049799799799799 	299.9999999999924 	7.904903836100524e-12 	101324.9999999948
1.052302302302302 	299.9999999999678 	6.441834797894225e-12 	101324.9999999948
1.054804804804804 	299.9999999999501 	8.177062652647725e-12 	101324.9999999948
1.057307307307306 	299.9999999999362 	7.596750187800021e-12 	101324.9999999947
1.059809809809809 	299.9999999999647 	8.771538168397856e-12 	101324.9999999948
1.062312312312312 	299.9999999999579 	8.416263994375868e-12 	101324.9999999948
1.064814814814814 	299.9999999999524 	9.121008682535765e-12 	101324.9999999949
1.067317317317317 	299.9999999999399 	9.145942326772692e-12 	101324.9999999949
1.069819819819819 	299.9999999999415 	9.072971480969369e-12 	101324.9999999949
1.072322322322321 	299.9999999999906 	1.073484459360501e-11 	101324.999999995
1.074824824824824 	300.000000000013 	9.215594865683971e-12 	101324.9999999951
1.077327327327327 	300.0000000000256 	1.006067128912147e-11 	101324.9999999951
1.079829829829829 	300.0000000000255 	8.480017692416395e-12 	101324.999999995
1.082332332332332 	299.9999999999967 	8.402728733233209e-12 	101324.999999995
1.084834834834834 	299.9999999999764 	7.40385507255468e-12 	101324.999999995
1.087337337337337 	299.9999999999515 	7.250900679289191e-12 	101324.9999999952
1.089839839839839 	299.9999999999462 	8.496716661042172e-12 	101324.9999999952
1.092342342342342 	299.9999999999767 	7.227164692889603e-12 	101324.9999999951
1.094844844844844 	299.9999999999803 	7.65554377733176e-12 	101324.9999999951
1.097347347347347 	299.9999999999571 	6.012377790196394e-12 	101324.9999999952
1.099849849849849 	299.9999999999467 	7.88900904580652e-12 	101324.9999999954
1.102352352352352 	299.9999999999676 	6.416540934356637e-12 	101324.9999999955
1.104854854854854 	299.9999999999819 	8.434896687287344e-12 	101324.9999999957
1.107357357357357 	299.9999999999673 	7.110743944313187e-12 	101324.9999999959
1.109859859859859 	299.9999999999579 	8.200362068333649e-12 	101324.9999999956
1.112362362362362 	300.0000000000136 	7.594665658513075e-12 	101324.9999999953
1.114864864864865 	300.0000000000174 	7.936419024145365e-12 	101324.9999999952
1.117367367367367 	299.9999999999736 	9.028886866083326e-12 	101324.9999999951
1.119869869869869 	299.999999999943 	8.377319128414549e-12 	101324.9999999952
1.122372372372372 	299.9999999999701 	9.308594425299869e-12 	101324.999999995
1.124874874874874 	299.9999999999662 	8.010226126134487e-12 	101324.9999999948
1.127377377377377 	299.9999999999769 	8.818280966052754e-12 	101324.9999999947
1.129879879879879 	300.0000000000142 	8.088114074641463e-12 	101324.9999999948
1.132382382382382 	300.0000000000183 	8.418979195722032e-12 	101324.999999995
1.134884884884884 	300.0000000000039 	8.121229335598751e-12 	101324.9999999953
1.137387387387387 	300.000000000013 	7.643599457773597e-12 	101324.9999999955
1.139889889889889 	299.9999999999691 	8.094697276667176e-12 	101324.9999999956
1.142392392392392 	299.999999999959 	6.782629840179915e-12 	101324.9999999958
1.144894894894894 	300.0000000000101 	7.640267287284692e-12 	101324.9999999959
1.147397397397397 	300.0000000000017 	6.945476058514669e-12 	101324.9999999958
1.149899899899899 	299.999999999956 	8.292486791588819e-12 	101324.9999999958
1.152402402402402 	299.9999999999459 	8.17964790139783e-12 	101324.9999999957
1.154904904904904 	299.9999999999811 	8.691326682406668e-12 	101324.9999999955
1.157407407407407 	299.9999999999837 	7.553466684244025e-12 	101324.9999999955
1.159909909909909 	299.9999999999546 	7.297271623909648e-12 	101324.9999999958
1.162412412412412 	299.9999999999436 	8.196119776985167e-12 	101324.9999999959
1.164914914914914 	299.9999999999732 	6.337907744629189e-12 	101324.9999999957
1.167417417417417 	299.9999999999787 	6.890164097154454e-12 	101324.9999999955
1.169919919919919 	300.0000000000109 	6.040361059688189e-12 	101324.9999999954
1.172422422422422 	300.0000000000281 	7.154850144017899e-12 	101324.9999999951
1.174924924924925 	299.9999999999911 	6.733864940934655e-12 	101324.9999999948
1.177427427427427 	299.9999999999758 	7.570569274977352e-12 	101324.9999999948
1.179929929929929 	300.0000000000066 	8.392853882726655e-12 	101324.9999999948
1.182432432432432 	300.0000000000215 	6.913018335501446e-12 	101324.9999999948
1.184934934934934 	299.9999999999948 	7.256039460400684e-12 	101324.999999995
1.187437437437437 	299.9999999999784 	6.497649000371119e-12 	101324.9999999952
1.189939939939939 	299.9999999999789 	7.610540244341348e-12 	101324.9999999953
1.192442442442442 	299.9999999999441 	7.357747072883759e-12 	101324.9999999952
1.194944944944944 	299.9999999999512 	8.323006937097083e-12 	101324.9999999949
1.197447447447447 	300.0000000000035 	7.372782444791623e-12 	101324.9999999948
1.199949949949949 	300.000000000009 	6.743995497334561e-12 	101324.9999999948
1.202452452452452 	299.999999999964 	7.380616490414274e-12 	101324.9999999948
1.204954954954955 	299.9999999999634 	6.826409526699396e-12 	101324.9999999948
1.207457457457457 	299.9999999999955 	7.680489824195318e-12 	101324.999999995
1.20995995995996 	299.9999999999902 	6.799931978570116e-12 	101324.999999995
1.212462462462462 	299.9999999999843 	7.766139344139332e-12 	101324.9999999951
1.214964964964964 	299.9999999999876 	6.839176788338388e-12 	101324.9999999952
1.217467467467467 	299.9999999999864 	6.987728265141052e-12 	101324.9999999953
1.219969969969969 	299.9999999999728 	6.029696860036932e-12 	101324.9999999954
1.222472472472472 	300.0000000000065 	6.264649050448569e-12 	101324.9999999953
1.224974974974975 	300.0000000000195 	6.564363047594679e-12 	101324.9999999951
1.227477477477477 	299.9999999999882 	5.341673899536142e-12 	101324.9999999951
1.229979979979979 	299.9999999999872 	6.191435773547623e-12 	101324.9999999952
1.232482482482482 	299.9999999999665 	5.249868553555159e-12 	101324.9999999951
1.234984984984984 	299.9999999999646 	6.341772477570894e-12 	101324.9999999951
1.237487487487487 	299.9999999999886 	5.511191380456955e-12 	101324.9999999953
1.239989989989989 	299.9999999999943 	6.136505853705915e-12 	101324.9999999953
1.242492492492492 	300.0000000000197 	6.275499358642681e-12 	101324.9999999953
1.244994994994994 	299.999999999997 	5.053124396686669e-12 	101324.9999999954
1.247497497497497 	299.9999999999994 	5.657393970978277e-12 	101324.9999999956
1.249999999999999 	300.0000000000524 	4.78360431538481e-12 	101324.9999999958
