-1.25 	345.2413526233011 	0.107862495611976 	101370.2413526233
-1.247497497497497 	300.3084363330534 	0.109154822410495 	101369.9614219078
-1.244994994994995 	300.0388013129041 	0.1097754427533188 	101369.6509155943
-1.242492492492492 	300.0375060220855 	0.1086473261230854 	101369.3430162922
-1.23998998998999 	300.0372348572986 	0.1078178755693661 	101369.0256255843
-1.237487487487487 	300.036959546681 	0.1070397755718428 	101368.7000633231
-1.234984984984985 	300.0366774596038 	0.1062179209868696 	101368.3664801449
-1.232482482482482 	300.0363886182003 	0.1053840254181623 	101368.0249108152
-1.22997997997998 	300.0360930852178 	0.1045281197918502 	101367.6754290061
-1.227477477477477 	300.0357909056794 	0.1036538644540144 	101367.318088229
-1.224974974974975 	300.035482145513 	0.1027600479903045 	101366.9529664034
-1.222472472472472 	300.0351668521318 	0.1018474252487645 	101366.5801197686
-1.21996996996997 	300.0348450880977 	0.1009159274375635 	101366.1996223206
-1.217467467467467 	300.0345169112398 	0.09996584340219462 	101365.8115424442
-1.214964964964965 	300.0341823725271 	0.09899730824529776 	101365.4159405699
-1.212462462462462 	300.0338415543338 	0.09801052966479998 	101365.012914105
-1.20995995995996 	300.0334944887495 	0.09700565929736768 	101364.6025011199
-1.207457457457457 	300.0331412794967 	0.09598291378825881 	101364.1848243324
-1.204954954954955 	300.0327819533308 	0.09494244839367058 	101363.7599152963
-1.202452452452452 	300.0324165992431 	0.09388448947556088 	101363.3278795212
-1.19994994994995 	300.0320452904571 	0.09280922814375969 	101362.8888036344
-1.197447447447447 	300.0316680514327 	0.09171683456645785 	101362.4427164152
-1.194944944944945 	300.0312850272644 	0.09060757168171892 	101361.9897896919
-1.192442442442442 	300.0308962002998 	0.08948155906672442 	101361.5300027331
-1.18993993993994 	300.0305017005134 	0.08833908146459633 	101361.0635090833
-1.187437437437437 	300.0301016160868 	0.08718034661812168 	101360.5904131044
-1.184934934934935 	300.0296959184319 	0.08600547136877641 	101360.1106812628
-1.182432432432432 	300.0292848326965 	0.08481483879969687 	101359.6245797722
-1.17992992992993 	300.02886831827 	0.08360851715139597 	101359.1320603297
-1.177427427427427 	300.0284464358475 	0.08238673610966499 	101358.633194868
-1.174924924924925 	300.0280194370441 	0.08114991921362309 	101358.1282818181
-1.172422422422422 	300.027587170948 	0.07989799630418844 	101357.6171431218
-1.16991991991992 	300.02714981528 	0.07863135866736917 	101357.0999874451
-1.167417417417417 	300.0267076124422 	0.0773504290495422 	101356.5770997805
-1.164914914914915 	300.0262603221842 	0.07605498472083555 	101356.0481976146
-1.162412412412412 	300.0258081938013 	0.07474554455925876 	101355.5135794882
-1.15990990990991 	300.025351513199 	0.07342263382342024 	101354.9735843529
-1.157407407407407 	300.0248899666712 	0.07208585863148241 	101354.4278372617
-1.154904904904904 	300.0244237580924 	0.07073567247421622 	101353.876574683
-1.152402402402403 	300.0239533325511 	0.06937292133220692 	101353.3203231723
-1.1498998998999 	300.0234784007628 	0.06799719780346489 	101352.758745932
-1.147397397397397 	300.0229988630155 	0.06660842368121156 	101352.1917304364
-1.144894894894895 	300.0225152762313 	0.0652077502635531 	101351.6199361997
-1.142392392392392 	300.0220277894325 	0.06379553778944233 	101351.0435354991
-1.13988988988989 	300.0215359757185 	0.06237096258266966 	101350.4620176262
-1.137387387387387 	300.0210398627794 	0.06093422112334218 	101349.8754113449
-1.134884884884885 	300.0205402144237 	0.05948702313925072 	101349.2846197206
-1.132382382382382 	300.0200372858665 	0.05802979217551907 	101348.68994729
-1.12987987987988 	300.0195301375683 	0.05656060675215281 	101348.0902865904
-1.127377377377377 	300.0190185781998 	0.05507949834090822 	101347.4854140377
-1.124874874874875 	300.0185043978814 	0.05359032777762459 	101346.8774476672
-1.122372372372372 	300.0179881328916 	0.05209369362284093 	101346.2670218624
-1.11986986986987 	300.0174670001537 	0.05058363889599059 	101345.650845731
-1.117367367367367 	300.0169400580852 	0.04905916676493199 	101345.0278056664
-1.114864864864865 	300.0164120959705 	0.04753121795932193 	101344.4035639254
-1.112362362362362 	300.0158863297626 	0.04600573465519219 	101343.7819221967
-1.10985985985986 	300.0153564793646 	0.04446759417846442 	101343.155454627
-1.107357357357357 	300.0148146386186 	0.04289994089287221 	101342.5148134511
-1.104854854854855 	300.0142659827142 	0.04131663461579829 	101341.8661179592
-1.102352352352353 	300.0137255115693 	0.03975259832674147 	101341.2271030005
-1.09984984984985 	300.0131967763888 	0.038214167404955 	101340.6019664065
-1.097347347347347 	300.0126624003184 	0.03665860146872659 	101339.9701625826
-1.094844844844845 	300.0121035056361 	0.03504157269616345 	101339.3093726978
-1.092342342342342 	300.0115256800443 	0.03337880370144303 	101338.6262043966
-1.08983983983984 	300.0109574053977 	0.03174091165291777 	101337.9543323889
-1.087337337337337 	300.0104197067598 	0.0301789527249708 	101337.3186135858
-1.084834834834835 	300.009901084612 	0.02866271731180152 	101336.7054507083
-1.082332332332332 	300.0093657124467 	0.02710124192985763 	101336.0724860541
-1.07982982982983 	300.0087867420751 	0.02542695177931052 	101335.3879786499
-1.077327327327327 	300.0081725054188 	0.0236622276981923 	101334.6617810407
-1.074824824824825 	300.0075616074465 	0.02190710177674999 	101333.9395357308
-1.072322322322323 	300.0069922392362 	0.02026101623138883 	101333.2663938989
-1.06981981981982 	300.0064729656196 	0.01874659995246948 	101332.6524795275
-1.067317317317317 	300.0059768848097 	0.01729247329842996 	101332.0659863232
-1.064814814814815 	300.005459209974 	0.0157784380659354 	101331.4539647015
-1.062312312312312 	300.0048832378245 	0.01410539300911828 	101330.7730234814
-1.05980980980981 	300.0042395686202 	0.01224819393742499 	101330.0120520018
-1.057307307307307 	300.0035506454584 	0.01026833121716596 	101329.1975852933
-1.054804804804805 	300.0028604294413 	0.008286261129673216 	101328.3815963261
-1.052302302302302 	300.002216105595 	0.006433014915114115 	101327.6198677438
-1.0497997997998 	300.0016529962383 	0.004809110471835985 	101326.9541565028
-1.047297297297297 	300.0011889780516 	0.003467116045784881 	101326.4055945725
-1.044794794794795 	300.0008261398656 	0.002414691409473094 	101325.976649612
-1.042292292292292 	300.0005554704911 	0.001627354177329881 	101325.6566672417
-1.03978978978979 	300.0003619995942 	0.001063003131938942 	101325.4279487545
-1.037287287287287 	300.0002290113021 	0.0006740264724033631 	101325.2707322816
-1.034784784784785 	300.0001408370089 	0.0004154476639894264 	101325.1664943241
-1.032282282282283 	300.0000843035493 	0.000249235362080027 	101325.099661652
-1.02977977977978 	300.0000491761768 	0.0001457025573170615 	101325.0581348628
-1.027277277277277 	300.0000279840599 	8.309143985598709e-05 	101325.0330820656
-1.024774774774775 	300.0000155504424 	4.627067449274105e-05 	101325.0183833487
-1.022272272272272 	300.0000084458791 	2.518315109063742e-05 	101325.0099845059
-1.01976976976977 	300.0000044872409 	1.340702352689363e-05 	101325.0053047068
-1.017267267267267 	300.0000023338859 	6.98728502179626e-06 	101325.00275908
-1.014764764764765 	300.0000011892082 	3.567381169071599e-06 	101325.0014058723
-1.012262262262262 	300.0000005940258 	1.785437083969224e-06 	101325.0007022544
-1.00975975975976 	300.0000002910592 	8.765231932305745e-07 	101325.0003440953
-1.007257257257257 	300.0000001399695 	4.223348895223131e-07 	101325.0001654814
-1.004754754754755 	300.0000000661108 	1.998311374733041e-07 	101325.0000781521
-1.002252252252252 	300.0000000306737 	9.289744428016799e-08 	101325.0000362635
-0.9997497497497498 	300.0000000139866 	4.245117131449412e-08 	101325.0000165402
-0.9972472472472473 	300.000000006274 	1.90781861388029e-08 	101325.0000074187
-0.9947447447447449 	300.0000000027534 	8.435677209734278e-09 	101325.0000032731
-0.9922422422422421 	300.0000000011922 	3.672133863440527e-09 	101325.0000014207
-0.9897397397397399 	300.0000000005076 	1.574064623370616e-09 	101325.0000006065
-0.9872372372372376 	300.0000000002098 	6.660985712270756e-10 	101325.0000002542
-0.9847347347347346 	300.0000000000711 	2.774910519346957e-10 	101325.0000001041
-0.9822322322322323 	300.0000000000197 	1.140065568566602e-10 	101325.0000000409
-0.9797297297297296 	300.0000000000052 	4.552770441310217e-11 	101325.0000000149
-0.9772272272272275 	300.0000000000013 	1.757726228020621e-11 	101325.0000000042
-0.9747247247247248 	300.0000000000038 	6.840196172707534e-12 	101325.0000000001
-0.9722222222222224 	299.9999999999814 	2.482859315133089e-12 	101324.9999999985
-0.9697197197197196 	299.9999999999752 	1.248490334189689e-12 	101324.9999999979
-0.9672172172172175 	299.9999999999815 	7.872941166845296e-13 	101324.9999999976
-0.9647147147147147 	299.9999999999873 	8.275997412534698e-13 	101324.9999999976
-0.9622122122122124 	299.9999999999881 	6.345831056720697e-13 	101324.9999999976
-0.9597097097097099 	299.9999999999924 	8.392547128665237e-13 	101324.9999999976
-0.9572072072072073 	299.9999999999893 	9.630367932691779e-13 	101324.9999999976
-0.9547047047047047 	300.0000000000011 	5.67538392789747e-13 	101324.9999999977
-0.9522022022022023 	299.9999999999943 	1.137525146532193e-12 	101324.9999999976
-0.9496996996996998 	299.9999999999918 	1.279063023355111e-12 	101324.9999999975
-0.9471971971971973 	299.9999999999962 	1.712163606951454e-12 	101324.9999999974
-0.9446946946946947 	299.9999999999769 	1.497251536904898e-12 	101324.9999999974
-0.9421921921921923 	299.9999999999882 	1.449865858929411e-12 	101324.9999999974
-0.93968968968969 	300.0000000000002 	8.643436320644093e-13 	101324.9999999974
-0.9371871871871872 	299.9999999999965 	1.246831561662522e-12 	101324.9999999975
-0.9346846846846848 	299.9999999999854 	1.434852174797671e-12 	101324.9999999974
-0.9321821821821823 	299.9999999999899 	6.726262611370307e-13 	101324.9999999972
-0.9296796796796799 	299.9999999999999 	1.077880429822787e-12 	101324.999999997
-0.9271771771771771 	299.9999999999951 	9.247819524497856e-13 	101324.9999999968
-0.9246746746746748 	299.9999999999897 	1.30465866845657e-12 	101324.9999999971
-0.9221721721721724 	299.9999999999976 	1.564874855488767e-12 	101324.9999999973
-0.9196696696696698 	299.9999999999953 	1.912444890507977e-12 	101324.9999999974
-0.9171671671671672 	299.9999999999831 	1.126052486488735e-12 	101324.9999999976
-0.9146646646646649 	299.9999999999944 	1.366995353244009e-12 	101324.9999999975
-0.9121621621621623 	300.000000000003 	1.988462211220454e-12 	101324.9999999974
-0.9096596596596597 	299.9999999999884 	2.047876652836684e-12 	101324.9999999973
-0.9071571571571573 	299.9999999999966 	1.833875137451317e-12 	101324.9999999972
-0.9046546546546547 	300.0000000000052 	1.521110250472411e-12 	101324.9999999973
-0.9021521521521524 	299.9999999999897 	2.175232841249295e-12 	101324.9999999974
-0.8996496496496498 	299.9999999999961 	1.130255123511739e-12 	101324.9999999976
-0.8971471471471473 	300.0000000000043 	9.398801086500856e-13 	101324.9999999975
-0.894644644644645 	300.0000000000026 	1.592042375815016e-12 	101324.9999999975
-0.892142142142142 	300.0000000000021 	1.672642925593962e-12 	101324.9999999976
-0.8896396396396397 	300.0000000000047 	3.141738157949646e-12 	101324.9999999976
-0.8871371371371374 	299.9999999999886 	2.078531097155017e-12 	101324.9999999977
-0.8846346346346349 	299.9999999999815 	2.999598424121866e-12 	101324.9999999978
-0.8821321321321324 	299.9999999999822 	2.352193030798119e-12 	101324.9999999978
-0.8796296296296297 	299.9999999999827 	2.899391083035703e-12 	101324.9999999977
-0.8771271271271271 	299.9999999999827 	2.136234125837683e-12 	101324.9999999978
-0.8746246246246248 	299.999999999996 	2.204759148963648e-12 	101324.9999999978
-0.8721221221221224 	300.0000000000021 	1.908262859719908e-12 	101324.9999999977
-0.8696196196196196 	299.9999999999907 	1.473619704961768e-12 	101324.9999999975
-0.8671171171171175 	299.9999999999945 	1.27261225120851e-12 	101324.9999999973
-0.8646146146146148 	299.9999999999809 	8.53009631266542e-13 	101324.9999999972
-0.8621121121121121 	299.9999999999917 	3.695401344122605e-13 	101324.9999999972
-0.8596096096096097 	300.0000000000058 	9.904722668456059e-13 	101324.9999999972
-0.857107107107107 	299.9999999999869 	1.571097144639157e-12 	101324.9999999973
-0.8546046046046049 	299.9999999999973 	1.421476895045662e-12 	101324.9999999975
-0.8521021021021022 	300.0000000000011 	1.318003574725982e-12 	101324.9999999975
-0.8495995995995997 	299.9999999999961 	1.636663858779125e-12 	101324.9999999973
-0.8470970970970974 	299.9999999999777 	8.667262190152826e-13 	101324.9999999972
-0.8445945945945946 	299.9999999999869 	8.983705210653156e-13 	101324.9999999971
-0.8420920920920922 	300.0000000000027 	7.749875843877394e-13 	101324.9999999971
-0.8395895895895897 	299.9999999999959 	2.088779813076266e-12 	101324.9999999971
-0.8370870870870872 	299.9999999999974 	1.472637118062746e-12 	101324.9999999972
-0.8345845845845846 	300.0000000000009 	1.424825411553276e-12 	101324.9999999974
-0.8320820820820823 	299.9999999999837 	8.577743444226963e-13 	101324.9999999976
-0.8295795795795798 	299.999999999971 	1.109223971616508e-12 	101324.9999999976
-0.8270770770770772 	299.9999999999827 	1.521262978851739e-12 	101324.9999999976
-0.8245745745745746 	299.9999999999736 	8.977478046129533e-13 	101324.9999999975
-0.8220720720720721 	299.9999999999833 	7.360754658985107e-13 	101324.9999999975
-0.8195695695695699 	299.9999999999968 	7.637931806795618e-13 	101324.9999999976
-0.817067067067067 	299.9999999999861 	1.517075579246066e-12 	101324.9999999977
-0.8145645645645651 	299.9999999999751 	1.590294356836411e-12 	101324.9999999976
-0.8120620620620621 	299.9999999999943 	8.030743039294237e-13 	101324.9999999975
-0.8095595595595597 	300.0000000000024 	1.031266308204469e-12 	101324.9999999976
-0.8070570570570572 	299.9999999999804 	1.536580071682007e-12 	101324.9999999975
-0.8045545545545546 	299.999999999979 	1.227863141216296e-12 	101324.9999999975
-0.8020520520520523 	299.9999999999958 	2.36582149577493e-12 	101324.9999999973
-0.7995495495495494 	300.0000000000056 	1.94235905118387e-12 	101324.9999999972
-0.7970470470470474 	299.9999999999983 	2.69917475540794e-12 	101324.9999999971
-0.7945445445445446 	300.000000000001 	2.388865995024821e-12 	101324.9999999969
-0.7920420420420423 	300.0000000000041 	2.915044558557759e-12 	101324.9999999968
-0.7895395395395397 	300.000000000004 	2.410244259663476e-12 	101324.9999999969
-0.7870370370370371 	300.0000000000019 	2.315230915489563e-12 	101324.999999997
-0.7845345345345348 	299.9999999999895 	2.026654221954097e-12 	101324.9999999973
-0.7820320320320323 	299.9999999999877 	1.839034472621175e-12 	101324.9999999975
-0.7795295295295296 	299.9999999999727 	2.439921600399188e-12 	101324.9999999975
-0.7770270270270272 	299.9999999999674 	2.39236667163097e-12 	101324.9999999973
-0.7745245245245247 	299.9999999999666 	2.118988808318773e-12 	101324.9999999971
-0.7720220220220222 	299.9999999999822 	2.038506217285734e-12 	101324.999999997
-0.7695195195195199 	299.9999999999836 	1.659157680471012e-12 	101324.9999999971
-0.767017017017017 	299.9999999999927 	2.361093283267397e-12 	101324.9999999972
-0.7645145145145147 	300.0000000000042 	2.298793527750597e-12 	101324.9999999974
-0.7620120120120122 	300.0000000000059 	3.097788436606153e-12 	101324.9999999975
-0.7595095095095097 	299.9999999999761 	2.529984939297073e-12 	101324.9999999977
-0.7570070070070072 	299.9999999999777 	5.104082688104195e-12 	101324.9999999977
-0.7545045045045048 	299.9999999999966 	3.258448254198857e-12 	101324.9999999978
-0.7520020020020022 	299.9999999999864 	4.52400462921112e-12 	101324.9999999979
-0.7494994994994997 	299.999999999985 	2.175141403237412e-12 	101324.9999999979
-0.7469969969969972 	299.9999999999994 	2.379454438659101e-12 	101324.999999998
-0.7444944944944945 	299.9999999999941 	1.206750881755408e-12 	101324.9999999979
-0.7419919919919924 	299.9999999999943 	1.133150799577479e-12 	101324.9999999978
-0.7394894894894897 	299.9999999999843 	8.081923727319311e-13 	101324.9999999977
-0.7369869869869872 	299.999999999996 	6.173858172591386e-13 	101324.9999999975
-0.7344844844844846 	299.9999999999872 	1.596688037720844e-12 	101324.9999999974
-0.7319819819819822 	300.0000000000006 	8.609604446579015e-13 	101324.9999999976
-0.7294794794794797 	299.9999999999986 	2.206385740692526e-12 	101324.9999999978
-0.7269769769769773 	300.0000000000043 	1.233820557120632e-12 	101324.9999999977
-0.7244744744744747 	300.0000000000079 	1.569748492854249e-12 	101324.9999999977
-0.721971971971972 	299.9999999999852 	1.284728036813926e-12 	101324.9999999976
-0.7194694694694695 	299.999999999993 	1.19929665284216e-12 	101324.9999999976
-0.7169669669669674 	299.9999999999764 	1.25647174490896e-12 	101324.9999999975
-0.7144644644644647 	299.9999999999889 	1.091962454588596e-12 	101324.9999999975
-0.711961961961962 	300.0000000000028 	1.404578873804834e-12 	101324.9999999975
-0.7094594594594597 	300.0000000000062 	6.737477130157416e-13 	101324.9999999976
-0.7069569569569573 	300.0000000000077 	1.418276499842825e-12 	101324.9999999977
-0.7044544544544545 	300.0000000000094 	8.485840679474313e-13 	101324.9999999976
-0.7019519519519523 	300.000000000001 	7.144185012534938e-13 	101324.9999999975
-0.6994494494494495 	299.9999999999747 	8.787883378157869e-13 	101324.9999999975
-0.6969469469469471 	299.9999999999819 	1.228024654647355e-12 	101324.9999999976
-0.6944444444444446 	299.999999999989 	1.251937767450725e-12 	101324.9999999975
-0.6919419419419421 	300.0000000000115 	1.094866248298833e-12 	101324.9999999976
-0.6894394394394396 	299.9999999999983 	9.397936138274993e-13 	101324.9999999975
-0.6869369369369374 	300.0000000000032 	1.068830238784199e-12 	101324.9999999975
-0.6844344344344344 	300.000000000008 	4.588932523183983e-13 	101324.9999999975
-0.6819319319319321 	299.9999999999848 	4.611441111543341e-13 	101324.9999999976
-0.6794294294294296 	299.9999999999794 	1.720717543897782e-13 	101324.9999999975
-0.6769269269269272 	299.9999999999695 	4.150993375917913e-13 	101324.9999999974
-0.6744244244244245 	299.9999999999873 	5.263093339807819e-13 	101324.9999999974
-0.6719219219219222 	299.9999999999852 	7.412593072517204e-13 	101324.9999999973
-0.6694194194194195 	299.9999999999983 	1.350971195858491e-12 	101324.9999999974
-0.6669169169169172 	300.0000000000045 	1.129545108707476e-12 	101324.9999999973
-0.6644144144144146 	299.999999999987 	1.381701735579393e-12 	101324.9999999971
-0.661911911911912 	299.9999999999881 	1.175288805030002e-12 	101324.999999997
-0.6594094094094097 	299.999999999992 	1.105904877470593e-12 	101324.9999999971
-0.656906906906907 	299.9999999999791 	8.452534606095391e-13 	101324.9999999974
-0.6544044044044046 	299.9999999999804 	1.573887245329307e-12 	101324.9999999974
-0.6519019019019021 	299.9999999999976 	8.966691743744667e-13 	101324.9999999973
-0.6493993993993996 	300.0000000000089 	1.794204688059145e-12 	101324.9999999972
-0.6468968968968971 	300.000000000011 	1.410507669667543e-12 	101324.9999999972
-0.6443943943943946 	299.9999999999962 	1.874132912749572e-12 	101324.9999999972
-0.6418918918918921 	299.9999999999985 	7.001567139698979e-13 	101324.9999999971
-0.6393893893893897 	299.9999999999992 	5.631720084350224e-13 	101324.999999997
-0.6368868868868871 	299.9999999999893 	9.462559458344046e-13 	101324.999999997
-0.6343843843843846 	299.9999999999994 	7.582236090309643e-13 	101324.9999999971
-0.6318818818818821 	299.9999999999861 	6.575669800678426e-13 	101324.9999999973
-0.6293793793793795 	300.0000000000023 	6.054815608815312e-13 	101324.9999999974
-0.6268768768768773 	300.0000000000069 	3.407192437723829e-13 	101324.9999999976
-0.6243743743743745 	299.9999999999924 	5.23877934095875e-13 	101324.9999999976
-0.6218718718718721 	300.000000000001 	8.595038351671922e-13 	101324.9999999974
-0.6193693693693696 	299.9999999999783 	6.998091246015447e-13 	101324.9999999972
-0.6168668668668671 	299.9999999999939 	1.219004349956771e-12 	101324.9999999973
-0.6143643643643645 	300.0000000000028 	9.227319037847816e-13 	101324.9999999972
-0.6118618618618621 	299.999999999993 	3.883362640544536e-13 	101324.9999999972
-0.6093593593593596 	299.9999999999929 	5.714296548247881e-13 	101324.9999999972
-0.6068568568568571 	299.9999999999936 	6.086323584567504e-13 	101324.9999999972
-0.6043543543543546 	299.999999999984 	6.842394062295724e-13 	101324.9999999974
-0.6018518518518521 	299.9999999999886 	5.329759329201613e-13 	101324.9999999975
-0.5993493493493496 	299.9999999999806 	6.925649714737239e-13 	101324.9999999976
-0.5968468468468471 	299.9999999999833 	5.986180749273951e-13 	101324.9999999976
-0.5943443443443446 	299.9999999999966 	1.033187518787983e-12 	101324.9999999975
-0.591841841841842 	299.9999999999847 	6.286061679357676e-13 	101324.9999999976
-0.5893393393393397 	299.9999999999849 	9.831506325212022e-13 	101324.9999999976
-0.5868368368368371 	299.9999999999968 	1.097365287086305e-12 	101324.9999999978
-0.5843343343343346 	299.9999999999999 	1.69529857735386e-12 	101324.9999999978
-0.5818318318318321 	300.0000000000103 	1.35568226961747e-12 	101324.9999999976
-0.5793293293293297 	299.9999999999953 	2.06230383971423e-12 	101324.9999999974
-0.5768268268268271 	299.9999999999991 	9.293285043681045e-13 	101324.9999999974
-0.5743243243243245 	300.0000000000063 	1.417554095306488e-12 	101324.9999999972
-0.5718218218218221 	300.0000000000064 	8.952149408852904e-13 	101324.9999999972
-0.5693193193193196 	300.000000000014 	1.02842423747962e-12 	101324.9999999972
-0.5668168168168171 	299.9999999999936 	1.565596643790221e-12 	101324.9999999972
-0.5643143143143147 	299.9999999999808 	6.550198345642935e-13 	101324.9999999973
-0.5618118118118121 	300.0000000000038 	1.316886194132381e-12 	101324.9999999973
-0.5593093093093094 	300.0000000000107 	8.170843775401598e-13 	101324.9999999973
-0.5568068068068072 	300.0000000000059 	8.017832280428746e-13 	101324.9999999973
-0.5543043043043046 	300.0000000000078 	8.079616614456356e-13 	101324.9999999975
-0.551801801801802 	299.9999999999849 	4.82586626030038e-13 	101324.9999999974
-0.5492992992992995 	300.0000000000002 	8.411273825851372e-13 	101324.9999999974
-0.5467967967967969 	300.0000000000064 	1.073753260415376e-12 	101324.9999999974
-0.5442942942942947 	299.9999999999994 	1.277764435944144e-12 	101324.9999999975
-0.5417917917917919 	299.999999999984 	1.434679652216635e-12 	101324.9999999975
-0.5392892892892895 	299.9999999999769 	1.836058251498343e-12 	101324.9999999976
-0.536786786786787 	299.9999999999853 	1.368752514385192e-12 	101324.999999998
-0.5342842842842846 	299.9999999999886 	1.103446215084076e-12 	101324.9999999983
-0.531781781781782 	299.9999999999805 	3.996495983224946e-13 	101324.9999999984
-0.5292792792792794 	299.9999999999751 	6.42495450458156e-13 	101324.9999999984
-0.526776776776777 	299.9999999999702 	1.485244628349218e-12 	101324.9999999983
-0.5242742742742745 	299.9999999999918 	1.678292572510977e-12 	101324.9999999981
-0.521771771771772 	300.000000000005 	2.382199592694261e-12 	101324.9999999979
-0.5192692692692695 	299.9999999999854 	3.044869701989874e-12 	101324.9999999976
-0.516766766766767 	299.999999999999 	2.27519587063508e-12 	101324.9999999973
-0.5142642642642645 	299.9999999999897 	2.344404700210728e-12 	101324.9999999972
-0.511761761761762 	299.9999999999825 	1.500590021000462e-12 	101324.9999999974
-0.5092592592592596 	299.9999999999895 	1.775082502766106e-12 	101324.9999999974
-0.506756756756757 	299.999999999982 	1.444739416301005e-12 	101324.9999999975
-0.5042542542542544 	299.9999999999986 	8.470987878179313e-13 	101324.9999999978
-0.5017517517517521 	300.0000000000109 	8.505411293445563e-13 	101324.999999998
-0.4992492492492494 	300.0000000000103 	4.646945517594377e-13 	101324.9999999981
-0.496746746746747 	299.9999999999971 	2.033078164811972e-13 	101324.9999999981
-0.4942442442442445 	299.9999999999795 	6.453360428297058e-13 	101324.999999998
-0.4917417417417421 	299.9999999999811 	3.752015177988732e-13 	101324.9999999981
-0.4892392392392395 	299.9999999999876 	5.042775641528081e-13 	101324.9999999981
-0.486736736736737 	299.9999999999863 	2.634701055628503e-13 	101324.9999999981
-0.4842342342342345 	299.9999999999733 	7.425630643330295e-13 	101324.9999999981
-0.481731731731732 	300.0000000000105 	6.141110839127074e-13 	101324.9999999981
-0.4792292292292296 	300.0000000000072 	8.566720557712696e-13 	101324.999999998
-0.4767267267267268 	299.9999999999885 	1.513989121038336e-12 	101324.9999999982
-0.4742242242242246 	300.0000000000023 	1.872219640497135e-12 	101324.9999999984
-0.471721721721722 	299.9999999999882 	1.019927083669509e-12 	101324.9999999984
-0.4692192192192195 	299.9999999999911 	1.452460974125136e-12 	101324.9999999985
-0.4667167167167169 	299.9999999999688 	4.82143613263625e-13 	101324.9999999985
-0.4642142142142145 	299.9999999999998 	1.211360145182047e-12 	101324.9999999988
-0.461711711711712 	300.0000000000086 	3.707539318758256e-13 	101324.9999999986
-0.4592092092092094 	300.0000000000045 	7.95945090994093e-13 	101324.9999999986
-0.456706706706707 	300.0000000000185 	3.719591870374752e-13 	101324.9999999985
-0.4542042042042045 	299.99999999998 	1.80284378362061e-13 	101324.9999999985
-0.451701701701702 	299.9999999999841 	5.897375934952244e-13 	101324.9999999985
-0.4491991991991995 	299.9999999999893 	9.786224561022846e-13 	101324.9999999985
-0.4466966966966969 	299.9999999999903 	8.309615304449792e-13 	101324.9999999983
-0.4441941941941945 	299.9999999999981 	1.446154191459463e-12 	101324.9999999982
-0.441691691691692 	299.999999999986 	7.094374804420219e-13 	101324.9999999982
-0.4391891891891895 	299.9999999999961 	2.496559033767007e-12 	101324.9999999983
-0.436686686686687 	299.9999999999911 	1.143019295056863e-12 	101324.9999999982
-0.4341841841841846 	299.9999999999984 	2.316109952383152e-12 	101324.9999999981
-0.431681681681682 	299.9999999999834 	1.229855485624538e-12 	101324.9999999979
-0.4291791791791794 	299.9999999999725 	1.364060482716991e-12 	101324.9999999978
-0.426676676676677 	299.9999999999727 	3.541625844510655e-13 	101324.999999998
-0.4241741741741744 	299.9999999999901 	1.248293308064947e-12 	101324.999999998
-0.421671671671672 	300.000000000004 	7.303610594834679e-13 	101324.9999999978
-0.4191691691691694 	300.0000000000179 	1.205422504669e-12 	101324.9999999977
-0.4166666666666669 	300.0000000000218 	8.111536569720689e-13 	101324.9999999978
-0.4141641641641645 	299.9999999999806 	8.46957598475504e-13 	101324.9999999978
-0.411661661661662 	300.0000000000002 	1.134451649470697e-12 	101324.9999999978
-0.4091591591591594 	300.0000000000029 	4.914213618647896e-13 	101324.9999999978
-0.406656656656657 	299.9999999999815 	9.874640323792453e-13 	101324.9999999976
-0.4041541541541545 	300.0000000000077 	1.290337144828686e-12 	101324.9999999976
-0.401651651651652 	299.9999999999752 	6.795754742941319e-13 	101324.9999999976
-0.3991491491491494 	299.9999999999985 	2.316000005425769e-12 	101324.9999999976
-0.396646646646647 	299.9999999999858 	8.142665211924449e-13 	101324.9999999975
-0.3941441441441444 	299.9999999999913 	3.080529430747782e-12 	101324.9999999975
-0.3916416416416419 	299.9999999999777 	8.495636918624689e-13 	101324.9999999975
-0.3891391391391395 	299.9999999999885 	2.458402352963081e-12 	101324.9999999977
-0.3866366366366368 	299.9999999999863 	1.138646230927537e-12 	101324.9999999979
-0.3841341341341344 	299.9999999999989 	1.649365359663624e-12 	101324.9999999979
-0.381631631631632 	299.9999999999865 	1.411062978258211e-12 	101324.9999999979
-0.3791291291291294 	300.0000000000023 	1.275567310152133e-12 	101324.9999999979
-0.3766266266266269 	300.0000000000051 	1.663168272592669e-12 	101324.9999999976
-0.3741241241241244 	300.0000000000067 	7.241064451402292e-13 	101324.9999999977
-0.371621621621622 	300.0000000000071 	1.994050328694079e-12 	101324.9999999977
-0.3691191191191194 	300.0000000000013 	6.35108021631169e-13 	101324.999999998
-0.366616616616617 	300.0000000000018 	2.702922124025384e-12 	101324.999999998
-0.3641141141141143 	299.9999999999887 	8.890312418246679e-13 	101324.9999999979
-0.3616116116116119 	299.9999999999802 	1.852048661100349e-12 	101324.9999999978
-0.3591091091091095 	299.9999999999936 	6.734305057755979e-13 	101324.9999999977
-0.356606606606607 	299.9999999999956 	1.468751474949011e-12 	101324.999999998
-0.3541041041041044 	299.9999999999999 	1.75320779370069e-12 	101324.9999999978
-0.3516016016016019 	300.0000000000088 	9.14671396346114e-13 	101324.9999999976
-0.3490990990990994 	299.9999999999981 	1.718233025517275e-12 	101324.9999999976
-0.346596596596597 	300.0000000000099 	4.110766321166115e-13 	101324.9999999977
-0.3440940940940944 	300.0000000000126 	1.347178959271934e-12 	101324.9999999978
-0.3415915915915919 	300.0000000000104 	5.130310103778832e-13 	101324.9999999977
-0.3390890890890895 	299.9999999999933 	7.566750371424049e-13 	101324.9999999975
-0.3365865865865869 	300.000000000005 	1.501043572180423e-13 	101324.9999999975
-0.3340840840840844 	299.999999999996 	2.270099883731002e-13 	101324.9999999975
-0.3315815815815819 	300.0000000000099 	1.287044178411722e-13 	101324.9999999975
-0.3290790790790794 	300.0000000000114 	3.005944695265541e-13 	101324.9999999977
-0.3265765765765769 	299.9999999999825 	6.295877084156241e-13 	101324.9999999977
-0.3240740740740744 	300.0000000000016 	6.589173708883879e-13 	101324.9999999977
-0.3215715715715718 	300.0000000000068 	1.013505023943337e-12 	101324.9999999978
-0.3190690690690695 	299.9999999999823 	4.22690085084282e-13 	101324.9999999978
-0.3165665665665668 	299.9999999999967 	6.051222761610532e-13 	101324.9999999978
-0.3140640640640644 	299.9999999999969 	3.217497571625025e-13 	101324.9999999978
-0.311561561561562 	299.9999999999758 	7.851874747223875e-13 	101324.9999999977
-0.3090590590590593 	299.9999999999985 	1.572403106344007e-12 	101324.9999999977
-0.3065565565565568 	300.000000000002 	1.944956026618778e-12 	101324.9999999978
-0.3040540540540545 	299.9999999999984 	1.726845534983771e-12 	101324.9999999977
-0.3015515515515518 	300.0000000000054 	2.325482321931614e-12 	101324.9999999975
-0.2990490490490494 	299.9999999999779 	1.207555727746091e-12 	101324.9999999974
-0.2965465465465469 	299.9999999999992 	2.588426677730921e-12 	101324.9999999974
-0.2940440440440444 	299.9999999999989 	2.37109714379506e-12 	101324.9999999975
-0.2915415415415418 	300.0000000000055 	2.477166326495677e-12 	101324.9999999976
-0.2890390390390395 	300.0000000000053 	2.640923887701676e-12 	101324.9999999977
-0.2865365365365368 	299.9999999999875 	1.631007825076745e-12 	101324.9999999974
-0.2840340340340343 	299.9999999999946 	2.770662465177533e-12 	101324.9999999973
-0.2815315315315318 	299.9999999999742 	1.307217942623806e-12 	101324.9999999976
-0.2790290290290295 	299.9999999999877 	1.972154031967951e-12 	101324.9999999977
-0.2765265265265269 	300.0000000000041 	1.415088411085443e-12 	101324.9999999977
-0.2740240240240244 	300.0000000000073 	2.02768601824811e-12 	101324.9999999976
-0.2715215215215219 	300.0000000000069 	1.806049513970531e-12 	101324.9999999975
-0.2690190190190194 	299.9999999999787 	1.376206577082971e-12 	101324.9999999975
-0.2665165165165169 	299.999999999998 	2.158000018680594e-12 	101324.9999999977
-0.2640140140140144 	299.9999999999965 	1.633339405862404e-12 	101324.9999999976
-0.2615115115115119 	299.9999999999988 	2.979759269638192e-12 	101324.9999999974
-0.2590090090090094 	299.9999999999739 	1.533329613584239e-12 	101324.9999999974
-0.2565065065065068 	299.9999999999948 	2.206189084082331e-12 	101324.9999999974
-0.2540040040040044 	299.999999999995 	1.959383495216438e-12 	101324.9999999975
-0.2515015015015019 	300.0000000000073 	1.707884654664702e-12 	101324.9999999976
-0.2489989989989994 	300.000000000012 	2.148021389788497e-12 	101324.9999999976
-0.2464964964964968 	299.9999999999921 	6.561004957152e-13 	101324.9999999973
-0.2439939939939944 	299.9999999999949 	2.705461079642181e-12 	101324.9999999974
-0.2414914914914919 	299.9999999999861 	1.140165919895987e-12 	101324.9999999974
-0.2389889889889893 	299.9999999999961 	2.961167321114898e-12 	101324.9999999974
-0.2364864864864869 	300.0000000000051 	2.373834005911518e-12 	101324.9999999972
-0.2339839839839843 	299.9999999999845 	4.447900667896602e-12 	101324.9999999973
-0.2314814814814819 	299.9999999999913 	2.188804511880255e-12 	101324.9999999973
-0.2289789789789792 	299.9999999999731 	3.794026925543148e-12 	101324.9999999973
-0.2264764764764769 	299.999999999978 	2.674949801320524e-12 	101324.9999999975
-0.2239739739739743 	299.9999999999893 	3.521995796908455e-12 	101324.9999999974
-0.2214714714714718 	299.9999999999785 	3.366805304885879e-12 	101324.9999999974
-0.2189689689689693 	299.9999999999892 	2.43033981627342e-12 	101324.9999999975
-0.2164664664664669 	299.9999999999902 	3.477875029059026e-12 	101324.9999999978
-0.2139639639639643 	299.999999999975 	1.920849634439409e-12 	101324.9999999976
-0.2114614614614618 	299.9999999999888 	2.777231109609312e-12 	101324.9999999974
-0.2089589589589593 	300.0000000000032 	2.685996176486964e-12 	101324.9999999972
-0.2064564564564568 	300.0000000000024 	3.193956739251037e-12 	101324.9999999971
-0.2039539539539543 	299.9999999999742 	3.905957974112106e-12 	101324.9999999969
-0.2014514514514518 	299.9999999999711 	2.502770292302344e-12 	101324.9999999969
-0.1989489489489494 	299.9999999999929 	4.251430772794597e-12 	101324.9999999967
-0.1964464464464468 	300.0000000000034 	2.082153478392947e-12 	101324.9999999968
-0.1939439439439443 	300.0000000000005 	3.940884040511259e-12 	101324.9999999967
-0.1914414414414418 	299.9999999999806 	2.754577928148535e-12 	101324.9999999969
-0.1889389389389393 	299.9999999999969 	3.00512099029472e-12 	101324.9999999969
-0.1864364364364368 	300.0000000000067 	2.828369366102533e-12 	101324.9999999971
-0.1839339339339343 	299.9999999999914 	3.281043296969013e-12 	101324.9999999971
-0.1814314314314318 	299.9999999999941 	3.614676461773805e-12 	101324.9999999971
-0.1789289289289293 	299.9999999999689 	3.400506874024587e-12 	101324.9999999973
-0.1764264264264268 	299.9999999999879 	2.938573736946597e-12 	101324.9999999974
-0.1739239239239243 	299.9999999999671 	3.082752046445228e-12 	101324.9999999973
-0.1714214214214218 	299.9999999999987 	2.664914667424689e-12 	101324.9999999972
-0.1689189189189193 	299.9999999999802 	3.073967832604955e-12 	101324.9999999972
-0.1664164164164168 	299.9999999999965 	1.201040572014384e-12 	101324.9999999969
-0.1639139139139143 	299.9999999999956 	3.187623219791702e-12 	101324.9999999968
-0.1614114114114118 	300.0000000000049 	5.787159273137807e-13 	101324.9999999968
-0.1589089089089093 	300.000000000003 	5.607285830182342e-12 	101324.999999997
-0.1564064064064068 	299.999999999988 	7.069539823890537e-13 	101324.999999997
-0.1539039039039043 	299.999999999998 	5.869895724898609e-12 	101324.9999999967
-0.1514014014014018 	300.0000000000056 	1.209447857350701e-12 	101324.9999999966
-0.1488988988988993 	300.0000000000017 	5.878105371168367e-12 	101324.9999999965
-0.1463963963963968 	300.000000000002 	2.165463328552476e-12 	101324.9999999967
-0.1438938938938943 	299.9999999999898 	4.793698375651578e-12 	101324.9999999969
-0.1413913913913918 	299.9999999999729 	2.01605272929072e-12 	101324.9999999972
-0.1388888888888893 	299.9999999999899 	3.507014610384789e-12 	101324.9999999971
-0.1363863863863868 	299.9999999999645 	2.615043579569034e-12 	101324.9999999969
-0.1338838838838843 	299.9999999999822 	2.707110438241799e-12 	101324.9999999968
-0.1313813813813818 	299.999999999997 	2.302727515727058e-12 	101324.9999999964
-0.1288788788788793 	299.9999999999848 	2.59998655530601e-12 	101324.9999999963
-0.1263763763763768 	299.9999999999945 	1.437625606269656e-12 	101324.9999999963
-0.1238738738738743 	299.9999999999814 	2.017630762465793e-12 	101324.9999999965
-0.1213713713713717 	299.9999999999973 	9.88893372645665e-13 	101324.9999999965
-0.1188688688688693 	300.0000000000057 	2.707986787804653e-12 	101324.9999999966
-0.1163663663663668 	299.9999999999657 	1.260279237110248e-12 	101324.9999999966
-0.1138638638638643 	299.9999999999966 	3.086925797886415e-12 	101324.9999999967
-0.1113613613613618 	299.9999999999972 	1.389512148994302e-12 	101324.9999999964
-0.1088588588588592 	299.9999999999954 	4.264754835260991e-12 	101324.9999999964
-0.1063563563563568 	299.9999999999906 	1.556222850931022e-12 	101324.9999999962
-0.1038538538538543 	299.9999999999964 	3.354077928434872e-12 	101324.9999999959
-0.1013513513513517 	300.0000000000006 	2.027830973989986e-12 	101324.999999996
-0.09884884884884926 	299.9999999999862 	2.737972563483755e-12 	101324.9999999959
-0.09634634634634676 	299.9999999999723 	1.805199973256169e-12 	101324.999999996
-0.09384384384384425 	299.9999999999699 	1.857816070618928e-12 	101324.999999996
-0.09134134134134177 	300.0000000000038 	1.561420432483051e-12 	101324.9999999958
-0.08883883883883925 	300.0000000000013 	2.602170755906222e-12 	101324.999999996
-0.08633633633633674 	299.9999999999822 	2.18730044321456e-12 	101324.9999999961
-0.08383383383383426 	299.9999999999987 	1.828644536717086e-12 	101324.9999999962
-0.08133133133133173 	299.9999999999852 	2.299369730053788e-12 	101324.9999999962
-0.07882882882882926 	299.9999999999627 	1.951828879016388e-12 	101324.9999999962
-0.07632632632632676 	299.9999999999928 	2.127083147943512e-12 	101324.9999999961
-0.07382382382382424 	299.9999999999649 	2.502496835760551e-12 	101324.999999996
-0.07132132132132173 	300.0000000000003 	2.127927126162691e-12 	101324.9999999961
-0.06881881881881925 	299.999999999983 	2.334734256437704e-12 	101324.9999999961
-0.06631631631631671 	299.9999999999644 	2.326931768569066e-12 	101324.9999999961
-0.06381381381381425 	299.9999999999851 	2.302407132433178e-12 	101324.9999999959
-0.06131131131131173 	299.9999999999859 	2.0644962954881e-12 	101324.999999996
-0.05880880880880923 	299.9999999999744 	1.97420340385751e-12 	101324.999999996
-0.05630630630630672 	299.9999999999869 	2.328367967693788e-12 	101324.9999999959
-0.05380380380380424 	300.0000000000056 	2.64299128328147e-12 	101324.9999999961
-0.05130130130130173 	300.0000000000011 	2.7394324410261e-12 	101324.9999999961
-0.04879879879879922 	299.9999999999823 	2.265400048657203e-12 	101324.999999996
-0.04629629629629672 	299.9999999999798 	1.842813950662912e-12 	101324.9999999957
-0.04379379379379422 	299.9999999999692 	1.537702902421975e-12 	101324.9999999961
-0.04129129129129173 	299.9999999999927 	1.121689344787439e-12 	101324.9999999961
-0.03878878878878922 	299.999999999997 	1.399830546745813e-12 	101324.9999999959
-0.03628628628628671 	299.9999999999942 	6.534312296836383e-13 	101324.9999999958
-0.03378378378378422 	299.9999999999762 	8.66622759121401e-13 	101324.9999999957
-0.03128128128128172 	299.9999999999885 	4.308951954371277e-13 	101324.9999999956
-0.02877877877877922 	299.9999999999879 	6.541587648528342e-13 	101324.9999999958
-0.0262762762762767 	299.9999999999667 	1.678302548889188e-13 	101324.9999999961
-0.02377377377377422 	300.0000000000053 	3.027198844601166e-13 	101324.999999996
-0.0212712712712717 	299.9999999999691 	4.494741540646305e-13 	101324.9999999961
-0.01876876876876921 	299.9999999999896 	5.773309078710081e-13 	101324.9999999959
-0.01626626626626671 	300.0000000000005 	3.486679447566499e-13 	101324.9999999961
-0.0137637637637642 	299.9999999999879 	4.005497007362813e-14 	101324.9999999961
-0.0112612612612617 	300.0000000000042 	4.759713513293365e-13 	101324.9999999962
-0.008758758758759198 	299.999999999998 	3.848194681410006e-13 	101324.9999999962
-0.006256256256256697 	299.9999999999632 	1.952794486149004e-13 	101324.9999999961
-0.003753753753754195 	299.9999999999839 	2.419877302143146e-13 	101324.9999999962
-0.001251251251251693 	299.9999999999774 	2.241026927867942e-13 	101324.9999999963
0.00125125125125081 	299.9999999999819 	2.886768689116805e-13 	101324.9999999964
0.003753753753753312 	299.9999999999876 	3.20882067930978e-13 	101324.9999999964
0.006256256256255817 	299.9999999999635 	3.27994724684516e-13 	101324.9999999963
0.008758758758758317 	299.9999999999969 	6.789716308631289e-13 	101324.9999999963
0.01126126126126082 	299.9999999999998 	8.976701153784578e-13 	101324.9999999966
0.01376376376376332 	299.9999999999882 	1.336589838685015e-13 	101324.9999999968
0.01626626626626582 	300.000000000002 	4.876810998645932e-13 	101324.9999999967
0.01876876876876833 	299.999999999982 	4.674176691480419e-13 	101324.9999999964
0.02127127127127083 	299.9999999999879 	1.052785284132984e-12 	101324.9999999964
0.02377377377377332 	299.9999999999981 	1.472251882018873e-12 	101324.9999999964
0.02627627627627583 	299.9999999999703 	1.663641849615781e-12 	101324.9999999965
0.02877877877877833 	300 	1.498141928355478e-12 	101324.9999999963
0.03128128128128083 	299.9999999999816 	5.409995108096618e-13 	101324.9999999964
0.03378378378378333 	299.9999999999679 	7.585416580761319e-13 	101324.9999999966
0.03628628628628584 	299.9999999999917 	7.735333402799591e-13 	101324.9999999964
0.03878878878878834 	299.9999999999957 	2.452794107051628e-13 	101324.9999999964
0.04129129129129084 	299.9999999999933 	4.949900324191082e-13 	101324.9999999964
0.04379379379379333 	299.9999999999827 	5.415569914858738e-13 	101324.9999999964
0.04629629629629585 	299.9999999999649 	6.675126388378863e-13 	101324.9999999965
0.04879879879879834 	299.9999999999857 	9.590473426527616e-13 	101324.9999999966
0.05130130130130085 	299.9999999999999 	9.193920261764733e-13 	101324.9999999963
0.05380380380380335 	300.0000000000069 	7.295990449175718e-13 	101324.9999999962
0.05630630630630584 	299.9999999999961 	7.175851341066421e-13 	101324.9999999961
0.05880880880880836 	299.9999999999783 	7.868281024557181e-13 	101324.999999996
0.06131131131131085 	299.9999999999909 	1.210282733477252e-12 	101324.999999996
0.06381381381381336 	299.9999999999838 	1.186463968643855e-12 	101324.999999996
0.06631631631631586 	299.9999999999619 	1.086377277129891e-12 	101324.9999999958
0.06881881881881835 	299.9999999999812 	1.685126494096177e-12 	101324.9999999958
0.07132132132132088 	300.0000000000019 	1.471891621105362e-12 	101324.9999999959
0.07382382382382337 	299.9999999999676 	1.800000903736451e-12 	101324.9999999959
0.07632632632632587 	299.9999999999872 	2.010147657166709e-12 	101324.9999999957
0.07882882882882837 	299.9999999999741 	2.227025719453137e-12 	101324.999999996
0.08133133133133086 	300.0000000000007 	2.518251390081689e-12 	101324.999999996
0.08383383383383337 	300.0000000000017 	2.177890042184377e-12 	101324.999999996
0.08633633633633589 	299.9999999999666 	2.103092849836379e-12 	101324.9999999964
0.08883883883883838 	300.0000000000053 	1.921648408443804e-12 	101324.9999999964
0.09134134134134086 	299.9999999999973 	1.649395396968209e-12 	101324.9999999964
0.09384384384384339 	299.999999999967 	1.792529058150013e-12 	101324.9999999965
0.09634634634634588 	299.9999999999872 	1.806604932186631e-12 	101324.9999999966
0.09884884884884838 	299.9999999999876 	2.21730884539526e-12 	101324.9999999967
0.1013513513513509 	300.0000000000103 	2.203496551312565e-12 	101324.9999999966
0.1038538538538534 	299.9999999999785 	2.211348655825305e-12 	101324.9999999967
0.1063563563563559 	300.0000000000037 	2.392860133360848e-12 	101324.9999999967
0.1088588588588584 	300.0000000000044 	2.353685083628595e-12 	101324.9999999966
0.1113613613613609 	299.9999999999881 	2.807661818842139e-12 	101324.9999999966
0.1138638638638634 	299.9999999999875 	2.919678586899352e-12 	101324.9999999965
0.1163663663663659 	299.999999999981 	3.448412378377999e-12 	101324.9999999963
0.1188688688688684 	299.999999999989 	3.629735215695346e-12 	101324.9999999962
0.1213713713713709 	299.9999999999959 	3.567379452027746e-12 	101324.9999999963
0.1238738738738734 	299.9999999999719 	3.562226785627091e-12 	101324.9999999964
0.1263763763763759 	299.9999999999977 	3.63364760912529e-12 	101324.9999999965
0.1288788788788784 	299.999999999999 	3.184789056240528e-12 	101324.9999999968
0.1313813813813809 	299.9999999999985 	3.174443130013053e-12 	101324.9999999969
0.1338838838838834 	299.9999999999855 	2.762912647012833e-12 	101324.999999997
0.1363863863863859 	300.0000000000076 	2.72915588580856e-12 	101324.9999999969
0.1388888888888884 	300.0000000000103 	2.30299657710294e-12 	101324.999999997
0.1413913913913909 	299.9999999999969 	2.210884278638319e-12 	101324.9999999969
0.1438938938938934 	299.9999999999912 	2.137793197519845e-12 	101324.9999999969
0.1463963963963959 	299.9999999999872 	2.2153586596022e-12 	101324.999999997
0.1488988988988985 	299.9999999999703 	2.962101144399421e-12 	101324.999999997
0.1514014014014009 	299.99999999999 	2.822989431931475e-12 	101324.9999999969
0.1539039039039035 	299.9999999999857 	3.911982356190372e-12 	101324.9999999969
0.1564064064064059 	299.9999999999864 	2.662533266331353e-12 	101324.9999999967
0.1589089089089084 	299.9999999999908 	4.764750814113521e-12 	101324.9999999966
0.1614114114114109 	299.9999999999895 	3.113985811811491e-12 	101324.9999999964
0.1639139139139134 	299.9999999999756 	4.039201389494078e-12 	101324.9999999964
0.166416416416416 	299.9999999999971 	3.775018455096909e-12 	101324.9999999967
0.1689189189189185 	300.0000000000129 	3.365041174173819e-12 	101324.9999999967
0.1714214214214209 	299.9999999999957 	4.041705004623837e-12 	101324.999999997
0.1739239239239235 	299.9999999999973 	3.266193787789825e-12 	101324.9999999969
0.1764264264264259 	299.9999999999864 	4.105983699131772e-12 	101324.9999999967
0.1789289289289284 	300.0000000000065 	2.300695603171928e-12 	101324.9999999969
0.181431431431431 	299.9999999999926 	3.80852976911985e-12 	101324.9999999972
0.1839339339339334 	299.9999999999942 	2.033314093188089e-12 	101324.9999999972
0.186436436436436 	299.9999999999819 	3.071760894498524e-12 	101324.9999999972
0.1889389389389385 	299.9999999999931 	2.891098339785155e-12 	101324.9999999975
0.191441441441441 	299.9999999999908 	2.940190210562935e-12 	101324.9999999973
0.1939439439439434 	299.9999999999752 	3.530823092753729e-12 	101324.999999997
0.196446446446446 	299.9999999999833 	2.490171415526629e-12 	101324.9999999969
0.1989489489489485 	299.9999999999883 	4.432748964927256e-12 	101324.9999999969
0.2014514514514509 	299.9999999999949 	3.243799661333596e-12 	101324.9999999967
0.2039539539539535 	299.9999999999954 	3.784652234540625e-12 	101324.9999999968
0.2064564564564559 	299.9999999999837 	2.813754208069899e-12 	101324.999999997
0.2089589589589585 	299.9999999999948 	3.260524026177452e-12 	101324.9999999974
0.211461461461461 	299.9999999999834 	2.905816975178848e-12 	101324.9999999974
0.2139639639639635 	299.9999999999998 	3.07036524044476e-12 	101324.9999999974
0.2164664664664659 	300.0000000000045 	3.704836136461646e-12 	101324.9999999972
0.2189689689689684 	300.0000000000048 	2.789459189564336e-12 	101324.9999999973
0.221471471471471 	300.0000000000025 	4.203712874457035e-12 	101324.9999999973
0.2239739739739735 	299.9999999999835 	2.616016933275869e-12 	101324.9999999974
0.226476476476476 	299.9999999999973 	3.085697995368088e-12 	101324.9999999973
0.2289789789789785 	300.000000000004 	2.373055475049816e-12 	101324.9999999975
0.231481481481481 	299.9999999999957 	2.123021645368332e-12 	101324.9999999972
0.2339839839839835 	299.9999999999915 	2.162023893988407e-12 	101324.9999999972
0.236486486486486 	300.0000000000053 	1.990813039835517e-12 	101324.999999997
0.2389889889889885 	299.9999999999994 	3.264236565246674e-12 	101324.9999999969
0.241491491491491 	299.9999999999748 	2.37465234253153e-12 	101324.9999999968
0.2439939939939935 	299.9999999999964 	4.58996533761366e-12 	101324.9999999971
0.246496496496496 	299.9999999999936 	2.990358612144101e-12 	101324.9999999974
0.2489989989989985 	300.0000000000073 	3.408822841780267e-12 	101324.9999999977
0.251501501501501 	300.0000000000053 	2.70052358477969e-12 	101324.9999999979
0.2540040040040035 	299.9999999999951 	2.84624775697815e-12 	101324.9999999979
0.256506506506506 	300.0000000000072 	2.873983243046282e-12 	101324.9999999977
0.2590090090090086 	299.9999999999744 	1.90032171099044e-12 	101324.9999999975
0.261511511511511 	300.0000000000049 	3.583932727997091e-12 	101324.9999999976
0.2640140140140135 	299.9999999999941 	1.801170839114886e-12 	101324.9999999975
0.2665165165165161 	299.9999999999814 	3.140989346176161e-12 	101324.9999999977
0.2690190190190185 	300.0000000000097 	2.531228203622798e-12 	101324.9999999977
0.271521521521521 	300.0000000000013 	2.592031384066036e-12 	101324.9999999977
0.2740240240240235 	300.0000000000047 	2.229575597366779e-12 	101324.9999999976
0.276526526526526 	299.9999999999998 	1.482049715734947e-12 	101324.9999999976
0.2790290290290286 	299.9999999999832 	1.889632242187347e-12 	101324.9999999973
0.281531531531531 	299.999999999971 	1.020199132783056e-12 	101324.9999999974
0.2840340340340335 	299.9999999999955 	2.604668417660684e-12 	101324.9999999976
0.2865365365365361 	299.9999999999863 	1.350598684420495e-12 	101324.9999999978
0.2890390390390385 	299.9999999999971 	1.944881941794251e-12 	101324.9999999977
0.291541541541541 	299.9999999999969 	9.78424726063636e-13 	101324.9999999978
0.2940440440440436 	299.9999999999977 	9.127541031928484e-13 	101324.9999999977
0.296546546546546 	299.9999999999941 	1.001340246596881e-12 	101324.9999999979
0.2990490490490486 	299.9999999999764 	5.623510852349647e-13 	101324.9999999982
0.3015515515515511 	300.0000000000093 	2.527312757691789e-12 	101324.999999998
0.3040540540540535 	299.9999999999965 	9.396109513388607e-13 	101324.999999998
0.3065565565565562 	300.0000000000001 	3.074885600727309e-12 	101324.999999998
0.3090590590590585 	299.9999999999957 	6.188814945229218e-13 	101324.9999999979
0.3115615615615611 	299.999999999976 	9.660160482677524e-13 	101324.999999998
0.3140640640640635 	299.999999999999 	2.695776282089816e-13 	101324.9999999979
0.316566566566566 	299.9999999999955 	3.358110779191285e-13 	101324.9999999978
0.3190690690690687 	299.9999999999829 	5.105350619375015e-13 	101324.9999999978
0.3215715715715711 	300.0000000000038 	7.307377956011765e-13 	101324.9999999978
0.3240740740740735 	299.999999999997 	1.329256536397925e-12 	101324.9999999976
0.326576576576576 	299.9999999999665 	6.231277055264361e-13 	101324.9999999976
0.3290790790790786 	300.0000000000006 	3.814094924179048e-13 	101324.9999999975
0.3315815815815811 	300.0000000000142 	4.046022397885945e-13 	101324.9999999973
0.3340840840840836 	299.9999999999976 	6.072075543428657e-13 	101324.9999999974
0.3365865865865861 	300.0000000000211 	1.733934493550253e-13 	101324.9999999974
0.3390890890890886 	300.0000000000148 	6.939557070598811e-13 	101324.9999999977
0.3415915915915911 	300.0000000000009 	3.2285890212107e-13 	101324.9999999977
0.3440940940940935 	299.9999999999851 	9.067149026256921e-13 	101324.9999999978
0.3465965965965962 	300.0000000000103 	5.131478259076891e-13 	101324.9999999978
0.3490990990990985 	300.0000000000089 	1.725223098570905e-12 	101324.9999999978
0.3516016016016011 	299.9999999999955 	1.160205688249697e-12 	101324.999999998
0.3541041041041035 	300.0000000000025 	1.98138212900712e-12 	101324.9999999979
0.3566066066066061 	299.9999999999879 	1.765756848238871e-12 	101324.999999998
0.3591091091091085 	299.9999999999761 	1.530979001037328e-12 	101324.9999999978
0.3616116116116112 	299.9999999999822 	1.899558151047071e-12 	101324.9999999977
0.3641141141141137 	299.9999999999794 	9.24254563281234e-13 	101324.9999999977
0.3666166166166161 	299.9999999999758 	2.352489777924884e-12 	101324.9999999977
0.3691191191191185 	300.0000000000092 	1.333470906354962e-12 	101324.9999999977
0.371621621621621 	300.0000000000051 	1.305450724725819e-12 	101324.9999999978
0.3741241241241237 	300.0000000000172 	3.296077737743976e-13 	101324.9999999977
0.3766266266266261 	300.0000000000075 	1.053716094861099e-12 	101324.9999999977
0.3791291291291286 	299.9999999999936 	4.207285146486457e-13 	101324.9999999978
0.3816316316316311 	299.9999999999758 	7.789482133730007e-13 	101324.999999998
0.3841341341341336 	300.0000000000014 	7.65707915517024e-13 	101324.9999999981
0.3866366366366362 	299.999999999999 	1.165238870074221e-12 	101324.9999999981
0.3891391391391387 	299.9999999999872 	7.942790424212569e-13 	101324.9999999981
0.391641641641641 	299.9999999999987 	1.029188435583199e-12 	101324.9999999979
0.3941441441441436 	300.0000000000038 	1.363347620585443e-12 	101324.9999999978
0.3966466466466462 	300.0000000000012 	1.676274618467611e-12 	101324.9999999977
0.3991491491491486 	299.9999999999857 	1.495593981665723e-12 	101324.9999999977
0.4016516516516512 	299.9999999999752 	1.883134157484313e-12 	101324.999999998
0.4041541541541536 	299.9999999999873 	1.005744760062087e-12 	101324.9999999981
0.4066566566566561 	299.9999999999877 	2.269388559058024e-12 	101324.9999999982
0.4091591591591587 	299.9999999999999 	1.346180905861382e-12 	101324.999999998
0.4116616616616612 	300.0000000000048 	3.349925950483138e-12 	101324.9999999979
0.4141641641641635 	300.0000000000128 	2.290465731899858e-12 	101324.9999999981
0.4166666666666662 	299.9999999999995 	3.205697002979822e-12 	101324.9999999982
0.4191691691691687 	299.9999999999841 	2.863082237934754e-12 	101324.9999999982
0.421671671671671 	300.0000000000043 	2.035381364349757e-12 	101324.9999999982
0.4241741741741737 	299.9999999999937 	3.087540032700964e-12 	101324.9999999979
0.4266766766766761 	299.9999999999871 	1.140897464848896e-12 	101324.9999999976
0.4291791791791785 	300.0000000000056 	3.152066070756053e-12 	101324.9999999978
0.4316816816816812 	299.9999999999996 	8.183602803986283e-13 	101324.9999999979
0.4341841841841836 	299.9999999999939 	2.620409335477865e-12 	101324.9999999978
0.4366866866866862 	299.9999999999778 	7.487863405654873e-13 	101324.9999999977
0.4391891891891885 	299.999999999997 	1.666283613478662e-12 	101324.9999999979
0.4416916916916913 	299.9999999999958 	1.493408279030761e-12 	101324.9999999981
0.4441941941941936 	299.9999999999949 	1.883205817722285e-12 	101324.9999999983
0.4466966966966961 	299.9999999999767 	1.421664812141396e-12 	101324.9999999983
0.4491991991991987 	299.9999999999968 	1.149526782238083e-12 	101324.999999998
0.4517017017017012 	299.999999999996 	1.788702139384857e-12 	101324.9999999978
0.4542042042042035 	299.9999999999953 	1.548475378189818e-12 	101324.9999999979
0.4567067067067062 	299.9999999999975 	2.343840367919761e-12 	101324.9999999979
0.4592092092092087 	299.9999999999778 	2.051220739436053e-12 	101324.9999999979
0.4617117117117112 	300.0000000000037 	2.089781226497938e-12 	101324.9999999977
0.4642142142142137 	299.9999999999883 	1.983505206230257e-12 	101324.9999999977
0.4667167167167162 	299.9999999999932 	1.654314074687683e-12 	101324.9999999978
0.4692192192192187 	299.9999999999858 	1.263239854433744e-12 	101324.9999999979
0.4717217217217212 	300.0000000000048 	1.453691903854483e-12 	101324.9999999978
0.4742242242242236 	299.999999999986 	2.068970967368352e-12 	101324.9999999977
0.4767267267267262 	299.9999999999976 	1.826417975958072e-12 	101324.9999999976
0.4792292292292287 	300.000000000004 	2.347040368675e-12 	101324.9999999975
0.4817317317317312 	300.000000000008 	2.636992927631071e-12 	101324.9999999975
0.4842342342342336 	299.9999999999939 	3.002055179337561e-12 	101324.9999999976
0.4867367367367362 	299.9999999999842 	2.683132338337269e-12 	101324.9999999975
0.4892392392392387 	300.0000000000051 	2.117459620790878e-12 	101324.9999999973
0.4917417417417412 	299.9999999999997 	2.560131710805199e-12 	101324.9999999971
0.4942442442442437 	299.9999999999675 	2.072293533370648e-12 	101324.999999997
0.4967467467467462 	299.9999999999755 	2.976744582504629e-12 	101324.9999999969
0.4992492492492487 	299.9999999999723 	1.371572815017709e-12 	101324.9999999972
0.5017517517517511 	299.9999999999841 	1.638319567514728e-12 	101324.9999999973
0.5042542542542537 	299.9999999999894 	9.586109245450874e-13 	101324.9999999975
0.5067567567567562 	299.9999999999815 	1.184012561060527e-12 	101324.9999999975
0.5092592592592589 	299.9999999999865 	1.308579947264885e-12 	101324.9999999976
0.5117617617617611 	299.9999999999861 	1.350858764186988e-12 	101324.9999999977
0.5142642642642637 	299.9999999999967 	2.085276490311364e-12 	101324.9999999976
0.5167667667667663 	299.9999999999922 	1.665191824156122e-12 	101324.9999999977
0.5192692692692688 	299.9999999999754 	3.370651754744121e-12 	101324.9999999979
0.5217717717717714 	299.9999999999782 	8.833029680984878e-13 	101324.9999999978
0.5242742742742736 	299.9999999999786 	3.151794871970289e-12 	101324.9999999979
0.5267767767767763 	299.9999999999879 	1.379412345654839e-12 	101324.9999999981
0.5292792792792789 	299.9999999999832 	2.096858725829255e-12 	101324.9999999979
0.5317817817817813 	299.999999999969 	5.468275821241078e-13 	101324.9999999977
0.5342842842842837 	300.0000000000043 	1.170829439457021e-12 	101324.9999999976
0.5367867867867864 	300.0000000000005 	1.647597310672385e-12 	101324.9999999976
0.5392892892892888 	299.9999999999866 	2.117006311247596e-12 	101324.9999999972
0.5417917917917912 	300.0000000000013 	1.687272296221661e-12 	101324.9999999971
0.5442942942942938 	299.9999999999913 	1.449726863192211e-12 	101324.9999999971
0.5467967967967964 	299.9999999999845 	7.110601152703026e-13 	101324.999999997
0.5492992992992988 	299.999999999981 	5.329575035329592e-13 	101324.9999999969
0.5518018018018012 	299.9999999999798 	3.806877750632247e-13 	101324.9999999969
0.5543043043043039 	300.000000000004 	5.203693035568386e-13 	101324.999999997
0.5568068068068063 	299.999999999995 	6.770282745254253e-13 	101324.9999999971
0.5593093093093087 	299.9999999999728 	1.005506880545956e-12 	101324.9999999971
0.5618118118118114 	299.9999999999893 	6.498335752267054e-13 	101324.9999999971
0.5643143143143137 	299.9999999999835 	1.020189607189856e-12 	101324.9999999971
0.5668168168168163 	299.9999999999988 	6.31058131731247e-13 	101324.9999999971
0.5693193193193188 	300.0000000000097 	1.189778713964052e-12 	101324.9999999971
0.5718218218218213 	300.0000000000078 	9.584972400228187e-13 	101324.9999999971
0.5743243243243239 	300.0000000000027 	7.284870821313623e-13 	101324.9999999969
0.5768268268268262 	300.0000000000002 	1.325651471040489e-12 	101324.9999999968
0.5793293293293288 	299.9999999999853 	1.130250685859667e-12 	101324.9999999968
0.5818318318318314 	299.9999999999772 	1.875745964858916e-12 	101324.9999999969
0.5843343343343338 	299.9999999999945 	1.657418143367728e-12 	101324.999999997
0.5868368368368363 	299.9999999999916 	1.013769208835484e-12 	101324.9999999971
0.5893393393393387 	299.9999999999806 	1.184673269077013e-12 	101324.9999999972
0.5918418418418413 	299.9999999999815 	5.103803882336962e-13 	101324.9999999972
0.5943443443443439 	300.0000000000024 	1.036990507542881e-12 	101324.9999999971
0.5968468468468463 	300.0000000000026 	5.265185954232358e-13 	101324.9999999971
0.5993493493493487 	300.0000000000138 	5.057212616620793e-13 	101324.9999999972
0.6018518518518514 	299.9999999999919 	4.413217602715734e-13 	101324.9999999972
0.6043543543543537 	299.9999999999981 	3.325264305943392e-13 	101324.9999999971
0.6068568568568564 	299.9999999999935 	3.703772238381438e-13 	101324.9999999972
0.6093593593593587 	299.9999999999754 	2.680727807596773e-13 	101324.9999999972
0.6118618618618614 	299.9999999999739 	2.868106571465421e-13 	101324.9999999972
0.6143643643643638 	300.0000000000023 	7.162208103746805e-13 	101324.999999997
0.6168668668668662 	299.9999999999956 	8.71133167066683e-13 	101324.9999999967
0.6193693693693688 	299.9999999999844 	6.163488552253289e-13 	101324.9999999968
0.6218718718718714 	299.9999999999901 	1.352162930560649e-12 	101324.9999999969
0.6243743743743737 	299.99999999998 	5.084852638078908e-13 	101324.999999997
0.6268768768768762 	299.999999999977 	8.991278911899224e-13 	101324.9999999969
0.629379379379379 	299.9999999999847 	4.166088430057822e-13 	101324.9999999971
0.6318818818818812 	299.9999999999874 	8.533880188526987e-13 	101324.9999999971
0.6343843843843838 	300.0000000000059 	7.714840465140464e-13 	101324.9999999972
0.6368868868868864 	299.9999999999941 	1.113382006013651e-12 	101324.999999997
0.6393893893893888 	299.9999999999756 	1.417991697028515e-12 	101324.9999999969
0.6418918918918912 	299.9999999999993 	1.062076126298352e-12 	101324.9999999969
0.6443943943943939 	299.9999999999969 	2.341204310230918e-12 	101324.999999997
0.6468968968968963 	299.9999999999927 	1.228486710549713e-12 	101324.9999999971
0.6493993993993988 	299.9999999999901 	1.776449923115202e-12 	101324.9999999972
0.6519019019019012 	299.9999999999889 	6.473976448807535e-13 	101324.9999999972
0.6544044044044038 	299.9999999999699 	1.361587941313048e-12 	101324.999999997
0.6569069069069065 	299.9999999999875 	5.448180101885039e-13 	101324.9999999969
0.6594094094094087 	299.999999999987 	9.027022489290988e-13 	101324.999999997
0.6619119119119113 	299.999999999983 	4.960296365711458e-13 	101324.9999999968
0.664414414414414 	299.9999999999957 	1.00147035371864e-12 	101324.9999999967
0.6669169169169162 	300.0000000000026 	8.785429825326151e-13 	101324.9999999966
0.6694194194194188 	299.9999999999936 	1.167097506935683e-12 	101324.9999999966
0.6719219219219214 	299.9999999999783 	6.499346297955134e-13 	101324.9999999966
0.674424424424424 	299.9999999999918 	4.740541970325014e-13 	101324.9999999965
0.6769269269269262 	299.9999999999744 	9.319189688736292e-14 	101324.9999999964
0.679429429429429 	299.9999999999983 	4.747655291153703e-13 	101324.9999999963
0.6819319319319311 	299.9999999999874 	8.533558531259149e-13 	101324.9999999962
0.6844344344344341 	299.9999999999976 	5.080191518603652e-13 	101324.9999999962
0.686936936936936 	299.9999999999975 	6.780805575109647e-13 	101324.9999999962
0.6894394394394392 	299.9999999999972 	1.776478797698957e-13 	101324.9999999961
0.6919419419419413 	299.9999999999936 	3.352799890406281e-13 	101324.9999999962
0.694444444444444 	299.999999999982 	8.681819213339165e-13 	101324.9999999962
0.6969469469469463 	299.9999999999758 	6.988002549502905e-13 	101324.9999999962
0.6994494494494489 	299.9999999999727 	7.402877308995009e-13 	101324.9999999962
0.7019519519519515 	299.9999999999943 	1.163255944473361e-12 	101324.9999999963
0.7044544544544538 	299.9999999999853 	7.216563748263835e-13 	101324.9999999963
0.7069569569569564 	299.9999999999964 	1.614756630010365e-12 	101324.9999999966
0.7094594594594589 	299.9999999999876 	8.156340283677946e-13 	101324.9999999968
0.7119619619619615 	299.9999999999722 	6.986222342223726e-13 	101324.9999999967
0.7144644644644638 	299.9999999999825 	5.611605971090957e-13 	101324.9999999968
0.7169669669669665 	299.9999999999742 	2.854636150895095e-13 	101324.9999999967
0.7194694694694688 	299.9999999999969 	5.905105575807361e-13 	101324.9999999968
0.7219719719719715 	299.9999999999965 	3.525324699180111e-13 	101324.9999999968
0.7244744744744737 	299.9999999999984 	4.226704339107621e-13 	101324.9999999966
0.7269769769769764 	299.9999999999971 	1.126771717264838e-12 	101324.9999999964
0.7294794794794791 	299.9999999999973 	1.533272612144021e-12 	101324.9999999963
0.7319819819819813 	299.9999999999942 	1.101842646801489e-12 	101324.999999996
0.7344844844844839 	299.9999999999767 	1.367990504456912e-12 	101324.999999996
0.7369869869869864 	299.9999999999872 	3.523192975452539e-13 	101324.9999999963
0.739489489489489 	299.9999999999817 	1.110763092073162e-12 	101324.9999999964
0.7419919919919914 	299.9999999999789 	1.229532416295835e-12 	101324.9999999965
0.7444944944944939 	299.9999999999927 	9.771994107722755e-13 	101324.9999999965
0.7469969969969963 	299.99999999999 	1.999524022258867e-12 	101324.9999999967
0.7494994994994989 	299.9999999999808 	1.935787932545418e-12 	101324.9999999968
0.7520020020020015 	299.9999999999903 	2.05558920279856e-12 	101324.9999999969
0.7545045045045039 	299.9999999999911 	1.269835160546581e-12 	101324.999999997
0.7570070070070062 	299.9999999999835 	1.489302261195387e-12 	101324.999999997
0.7595095095095092 	299.9999999999783 	4.003144487566287e-13 	101324.999999997
0.7620120120120112 	299.9999999999993 	5.854093414918174e-13 	101324.9999999969
0.7645145145145138 	299.9999999999962 	6.072089676728054e-13 	101324.9999999969
0.7670170170170165 	299.9999999999816 	9.355266546774336e-13 	101324.9999999968
0.7695195195195191 	299.9999999999754 	1.343288822570633e-12 	101324.9999999969
0.7720220220220213 	299.9999999999816 	1.556341074391953e-12 	101324.9999999968
0.7745245245245239 	299.9999999999845 	1.109823999199685e-12 	101324.9999999968
0.7770270270270263 	299.9999999999918 	1.56492374058938e-12 	101324.9999999969
0.779529529529529 	299.9999999999917 	1.115444656192813e-12 	101324.999999997
0.7820320320320313 	299.9999999999884 	1.832300357283774e-12 	101324.999999997
0.784534534534534 	299.999999999996 	1.556935407800383e-12 	101324.999999997
0.7870370370370364 	299.9999999999941 	9.008231768299485e-13 	101324.9999999969
0.7895395395395389 	299.999999999991 	1.234144370539056e-12 	101324.9999999969
0.7920420420420413 	299.9999999999941 	1.224924262320598e-12 	101324.999999997
0.794544544544544 	299.9999999999985 	1.621426445269182e-12 	101324.9999999969
0.7970470470470463 	300.0000000000018 	1.75512160605729e-12 	101324.9999999969
0.799549549549549 	299.9999999999945 	1.483398599215113e-12 	101324.999999997
0.8020520520520515 	299.9999999999954 	1.282287140411723e-12 	101324.9999999969
0.8045545545545539 	299.9999999999839 	5.649560696371567e-13 	101324.9999999969
0.8070570570570563 	299.9999999999963 	8.640488169932655e-13 	101324.999999997
0.8095595595595589 	299.9999999999877 	5.404969981391556e-13 	101324.999999997
0.8120620620620614 	299.9999999999773 	4.559676817385312e-13 	101324.9999999969
0.8145645645645638 	299.9999999999942 	8.519860390368176e-13 	101324.9999999969
0.8170670670670666 	299.9999999999938 	1.489615058778976e-12 	101324.999999997
0.8195695695695689 	299.999999999992 	1.429624597049908e-12 	101324.9999999972
0.8220720720720714 	299.9999999999825 	1.377742382030303e-12 	101324.9999999971
0.8245745745745739 	299.9999999999989 	7.677046841805896e-13 	101324.9999999972
0.8270770770770765 	299.9999999999919 	9.594847844160386e-13 	101324.9999999972
0.8295795795795788 	299.9999999999852 	3.791341825315686e-13 	101324.9999999971
0.8320820820820815 	300.0000000000053 	1.013949950513956e-12 	101324.9999999971
0.834584584584584 	299.9999999999999 	9.100694802552415e-13 	101324.9999999972
0.8370870870870865 	299.9999999999881 	1.074766265456012e-12 	101324.9999999973
0.8395895895895891 	299.9999999999758 	1.805599336254053e-12 	101324.9999999972
0.8420920920920915 	299.9999999999792 	1.267406350274808e-12 	101324.9999999969
0.844594594594594 	299.9999999999779 	1.612874103186079e-12 	101324.9999999968
0.8470970970970964 	299.9999999999819 	1.767937764266353e-12 	101324.9999999969
0.8495995995995991 	299.9999999999944 	1.661164445591577e-12 	101324.9999999969
0.8521021021021015 	299.9999999999929 	1.331176158972636e-12 	101324.999999997
0.8546046046046039 	299.9999999999926 	9.905096436006664e-13 	101324.9999999969
0.8571071071071066 	299.9999999999981 	1.802230285865814e-12 	101324.9999999968
0.8596096096096089 	299.9999999999852 	1.456888449232525e-12 	101324.9999999968
0.8621121121121116 	299.9999999999761 	1.598622646152871e-12 	101324.9999999966
0.8646146146146139 	299.9999999999937 	5.315280720440469e-13 	101324.9999999964
0.8671171171171166 	299.9999999999924 	3.1477038749666e-13 	101324.9999999964
0.8696196196196189 	299.9999999999848 	2.830387733044413e-13 	101324.9999999966
0.8721221221221216 	299.9999999999859 	8.921594377969651e-13 	101324.9999999967
0.874624624624624 	299.9999999999984 	9.693375361056588e-13 	101324.9999999969
0.8771271271271264 	300.0000000000032 	1.031893334151314e-12 	101324.9999999969
0.879629629629629 	300.0000000000005 	1.624431354892447e-12 	101324.9999999968
0.8821321321321317 	299.9999999999944 	1.303549013575115e-12 	101324.9999999969
0.8846346346346339 	299.9999999999787 	2.192502837873509e-12 	101324.9999999969
0.8871371371371364 	299.9999999999866 	1.334043197319663e-12 	101324.999999997
0.8896396396396391 	299.9999999999854 	2.190160582928553e-12 	101324.9999999971
0.8921421421421414 	299.9999999999878 	1.782478085651803e-12 	101324.9999999972
0.8946446446446441 	299.9999999999972 	2.021260349144252e-12 	101324.9999999972
0.8971471471471464 	299.9999999999995 	1.409030229249596e-12 	101324.9999999973
0.8996496496496489 	299.99999999999 	7.446126726620236e-13 	101324.9999999971
0.9021521521521517 	299.999999999984 	1.046003174096677e-12 	101324.999999997
0.9046546546546541 	299.9999999999933 	5.208032130076155e-13 	101324.9999999971
0.9071571571571564 	299.999999999982 	1.053958080694201e-12 	101324.9999999971
0.9096596596596589 	299.9999999999837 	9.209184075427574e-13 	101324.9999999972
0.9121621621621616 	300.0000000000006 	7.136855518371619e-13 	101324.9999999972
0.9146646646646639 	299.9999999999933 	5.845207272695925e-13 	101324.9999999974
0.9171671671671666 	299.9999999999829 	9.674638854094999e-13 	101324.9999999975
0.9196696696696689 	299.9999999999982 	1.272847187578972e-12 	101324.9999999975
0.9221721721721714 	299.9999999999999 	1.684085412025073e-12 	101324.9999999974
0.9246746746746741 	299.9999999999812 	1.207946015684914e-12 	101324.9999999973
0.9271771771771765 	299.9999999999794 	1.1710005188941e-12 	101324.9999999973
0.9296796796796791 	299.9999999999958 	1.548900414670333e-12 	101324.9999999974
0.9321821821821816 	299.9999999999932 	1.039816005353875e-12 	101324.9999999971
0.9346846846846838 	299.9999999999842 	1.236094781363476e-12 	101324.999999997
0.9371871871871866 	300.0000000000013 	1.188456029075009e-12 	101324.9999999971
0.9396896896896891 	300.0000000000035 	8.34773953455402e-13 	101324.999999997
0.9421921921921914 	300.0000000000025 	1.412832992352605e-12 	101324.999999997
0.9446946946946939 	299.9999999999874 	1.795899165029363e-12 	101324.9999999969
0.9471971971971965 	299.9999999999745 	8.659676271215059e-13 	101324.9999999968
0.9496996996996991 	299.999999999983 	8.433203549510887e-13 	101324.9999999968
0.9522022022022016 	299.9999999999876 	7.685784278750054e-13 	101324.9999999969
0.9547047047047038 	299.9999999999911 	3.670874426561915e-13 	101324.9999999968
0.9572072072072064 	299.9999999999912 	5.100191283541414e-13 	101324.9999999967
0.9597097097097093 	299.9999999999893 	6.297563223737643e-13 	101324.9999999968
0.9622122122122114 	299.9999999999869 	1.008804325225503e-12 	101324.9999999969
0.964714714714714 	299.9999999999882 	9.322205730868502e-13 	101324.9999999969
0.9672172172172167 	299.9999999999876 	6.542660222605762e-13 	101324.9999999969
0.969719719719719 	299.9999999999941 	1.364377319604741e-12 	101324.9999999969
0.9722222222222214 	299.9999999999898 	1.362263145086834e-12 	101324.9999999971
0.9747247247247239 	299.999999999988 	1.893171378683687e-12 	101324.9999999971
0.9772272272272267 	299.9999999999957 	1.767046366884882e-12 	101324.9999999971
0.9797297297297292 	299.9999999999934 	1.449136616310056e-12 	101324.999999997
0.9822322322322313 	299.9999999999982 	1.905209707081826e-12 	101324.9999999971
0.9847347347347344 	299.9999999999991 	1.716429702746809e-12 	101324.9999999971
0.9872372372372363 	299.999999999987 	2.162000690053633e-12 	101324.9999999972
0.9897397397397389 	299.9999999999951 	9.1121821133084e-13 	101324.9999999972
0.9922422422422417 	299.9999999999874 	1.361548706585781e-12 	101324.9999999972
0.9947447447447441 	299.9999999999829 	7.65190607638654e-13 	101324.9999999972
0.9972472472472468 	299.9999999999884 	1.17067487434254e-12 	101324.9999999972
0.999749749749749 	299.9999999999876 	9.668813568818868e-13 	101324.9999999973
1.002252252252252 	299.9999999999889 	1.177626161228736e-12 	101324.9999999974
1.004754754754754 	299.9999999999905 	1.569254738574861e-12 	101324.9999999973
1.007257257257256 	299.9999999999859 	1.323542104071629e-12 	101324.9999999974
1.009759759759759 	299.9999999999826 	1.834860506519764e-12 	101324.9999999975
1.012262262262261 	299.9999999999814 	8.79952158390724e-13 	101324.9999999977
1.014764764764764 	299.9999999999737 	1.302955160917077e-12 	101324.9999999978
1.017267267267267 	299.9999999999716 	1.021732366653876e-12 	101324.9999999979
1.019769769769769 	299.9999999999865 	1.604795817372427e-12 	101324.9999999978
1.022272272272272 	299.9999999999914 	1.442614344713313e-12 	101324.9999999977
1.024774774774774 	299.9999999999883 	1.780102241204835e-12 	101324.9999999976
1.027277277277277 	299.9999999999882 	2.635204022616287e-12 	101324.9999999975
1.029779779779779 	299.9999999999967 	2.504508066791462e-12 	101324.9999999976
1.032282282282282 	299.9999999999961 	2.736718120511706e-12 	101324.9999999977
1.034784784784784 	299.9999999999947 	2.158808739839771e-12 	101324.9999999978
1.037287287287286 	299.9999999999875 	2.021005014051177e-12 	101324.9999999978
1.039789789789789 	299.9999999999901 	1.997259443494867e-12 	101324.9999999979
1.042292292292291 	300.0000000000009 	2.165837912711621e-12 	101324.9999999979
1.044794794794794 	300.0000000000023 	1.934134233400346e-12 	101324.9999999978
1.047297297297296 	300.0000000000077 	1.167860542517021e-12 	101324.9999999979
1.049799799799799 	299.9999999999949 	1.628219259353632e-12 	101324.9999999978
1.052302302302302 	299.9999999999868 	9.511699263995565e-13 	101324.9999999979
1.054804804804804 	299.9999999999823 	1.378874666901624e-12 	101324.999999998
1.057307307307306 	299.9999999999758 	1.334447261138672e-12 	101324.999999998
1.059809809809809 	299.9999999999852 	2.268563596132426e-12 	101324.9999999978
1.062312312312312 	299.9999999999825 	2.272243061225914e-12 	101324.9999999976
1.064814814814814 	299.9999999999815 	2.46899924545071e-12 	101324.9999999976
1.067317317317317 	299.9999999999749 	2.153533379357709e-12 	101324.9999999976
1.069819819819819 	299.9999999999768 	1.938925385013917e-12 	101324.9999999976
1.072322322322321 	299.9999999999962 	2.425457300428222e-12 	101324.9999999976
1.074824824824824 	300.0000000000006 	1.19450925079285e-12 	101324.9999999976
1.077327327327327 	300.0000000000055 	1.564370232486348e-12 	101324.9999999976
1.079829829829829 	300.0000000000074 	7.376916571186065e-13 	101324.9999999977
1.082332332332332 	300.0000000000008 	1.135905141376796e-12 	101324.9999999979
1.084834834834834 	299.9999999999942 	1.561687966090593e-12 	101324.9999999981
1.087337337337337 	299.9999999999807 	1.891304395843105e-12 	101324.9999999983
1.089839839839839 	299.9999999999803 	2.161515185475409e-12 	101324.9999999983
1.092342342342342 	299.9999999999919 	1.752586734458243e-12 	101324.9999999982
1.094844844844844 	299.9999999999943 	2.398988831140048e-12 	101324.9999999983
1.097347347347347 	299.9999999999877 	1.982345912024075e-12 	101324.9999999984
1.099849849849849 	299.999999999984 	2.609308235862194e-12 	101324.9999999983
1.102352352352352 	299.9999999999887 	1.787409896563643e-12 	101324.9999999982
1.104854854854854 	299.9999999999961 	2.789688152209177e-12 	101324.9999999982
1.107357357357357 	299.9999999999909 	2.61005706389226e-12 	101324.999999998
1.109859859859859 	299.9999999999839 	3.437465491011599e-12 	101324.9999999978
1.112362362362362 	300.0000000000051 	2.688239878159071e-12 	101324.9999999977
1.114864864864865 	300.000000000003 	2.327682432075973e-12 	101324.9999999978
1.117367367367367 	299.9999999999878 	2.500222274934753e-12 	101324.9999999978
1.119869869869869 	299.999999999978 	1.863714376608404e-12 	101324.999999998
1.122372372372372 	299.9999999999837 	2.676373588074067e-12 	101324.9999999981
1.124874874874874 	299.9999999999831 	2.011479228889478e-12 	101324.9999999982
1.127377377377377 	299.9999999999922 	2.473770110587402e-12 	101324.9999999983
1.129879879879879 	300.0000000000115 	2.32990063780759e-12 	101324.9999999982
1.132382382382382 	300.0000000000082 	2.557215390472833e-12 	101324.999999998
1.134884884884884 	300.0000000000011 	2.277868381028389e-12 	101324.999999998
1.137387387387387 	300.0000000000052 	2.065545239406424e-12 	101324.999999998
1.139889889889889 	299.9999999999882 	1.969784882152819e-12 	101324.9999999981
1.142392392392392 	299.9999999999852 	1.309155687737898e-12 	101324.9999999981
1.144894894894894 	299.9999999999995 	1.827719366254557e-12 	101324.9999999982
1.147397397397397 	299.9999999999937 	1.324422421176783e-12 	101324.9999999983
1.149899899899899 	299.9999999999771 	1.853991749005454e-12 	101324.9999999983
1.152402402402402 	299.9999999999762 	1.945483033654225e-12 	101324.9999999984
1.154904904904904 	299.9999999999889 	2.456325435445656e-12 	101324.9999999987
1.157407407407407 	299.9999999999894 	1.820917490485125e-12 	101324.9999999987
1.159909909909909 	299.9999999999829 	1.539977647980436e-12 	101324.9999999988
1.162412412412412 	299.9999999999821 	2.094521618657099e-12 	101324.9999999987
1.164914914914914 	299.9999999999845 	1.503459065228015e-12 	101324.9999999987
1.167417417417417 	299.9999999999823 	2.1235801963895e-12 	101324.9999999986
1.169919919919919 	299.9999999999982 	1.790181515919117e-12 	101324.9999999985
1.172422422422422 	300.0000000000094 	2.446135089818076e-12 	101324.9999999985
1.174924924924925 	299.9999999999948 	2.154307080503996e-12 	101324.9999999986
1.177427427427427 	299.9999999999828 	2.829727710417898e-12 	101324.9999999987
1.179929929929929 	299.9999999999963 	3.399319958227389e-12 	101324.9999999986
1.182432432432432 	300.0000000000029 	2.534696884962699e-12 	101324.9999999987
1.184934934934934 	299.9999999999976 	2.889582949413312e-12 	101324.9999999987
1.187437437437437 	299.9999999999944 	2.381586378294402e-12 	101324.9999999986
1.189939939939939 	299.9999999999885 	2.706990293031807e-12 	101324.9999999985
1.192442442442442 	299.9999999999788 	2.662229275909728e-12 	101324.9999999986
1.194944944944944 	299.9999999999807 	3.568186832809223e-12 	101324.9999999986
1.197447447447447 	299.9999999999937 	3.193859753044123e-12 	101324.9999999988
1.199949949949949 	299.9999999999959 	3.232770624494922e-12 	101324.9999999991
1.202452452452452 	299.9999999999837 	3.684997285967052e-12 	101324.999999999
1.204954954954955 	299.9999999999836 	3.087730942281448e-12 	101324.999999999
1.207457457457457 	299.9999999999914 	3.322028308843731e-12 	101324.9999999992
1.20995995995996 	299.9999999999903 	2.609280057638275e-12 	101324.9999999992
1.212462462462462 	299.999999999996 	2.865737101418447e-12 	101324.9999999993
1.214964964964964 	299.9999999999952 	2.50477122542549e-12 	101324.9999999992
1.217467467467467 	299.9999999999949 	3.101268332489083e-12 	101324.9999999993
1.219969969969969 	299.9999999999948 	2.784413731538223e-12 	101324.9999999994
1.222472472472472 	300.0000000000053 	3.075438963956389e-12 	101324.9999999995
1.224974974974975 	300.0000000000117 	3.175323489053535e-12 	101324.9999999996
1.227477477477477 	300.0000000000013 	2.323202830540273e-12 	101324.9999999996
1.229979979979979 	299.9999999999953 	2.862927338011409e-12 	101324.9999999996
1.232482482482482 	299.9999999999853 	2.341670938130214e-12 	101324.9999999996
1.234984984984984 	299.9999999999869 	3.144865632074841e-12 	101324.9999999996
1.237487487487487 	299.9999999999891 	2.437887238574e-12 	101324.9999999996
1.239989989989989 	299.9999999999882 	2.853294541587252e-12 	101324.9999999996
1.242492492492492 	299.9999999999987 	3.173254420207413e-12 	101324.9999999995
1.244994994994994 	299.9999999999901 	2.379861410530872e-12 	101324.9999999994
1.247497497497497 	299.9999999999939 	3.2082309647223e-12 	101324.9999999994
1.249999999999999 	300.0000000000323 	2.968021445196113e-12 	101324.9999999994
