-1.25 	300 	0.09441207296985125 	101363.5256621388
-1.247497497497497 	300.0320625255929 	0.09506033673882743 	101363.9582121566
-1.244994994994995 	300.033295230668 	0.09644555097602706 	101364.378075501
-1.242492492492492 	300.0336557861444 	0.09755599092151804 	101364.7925211675
-1.23998998998999 	300.0339993786141 	0.09845122596958253 	101365.1996690722
-1.237487487487487 	300.0343373630877 	0.09944787474613227 	101365.599364965
-1.234984984984985 	300.0346690476331 	0.1004046306593517 	101365.9915937368
-1.232482482482482 	300.034994350394 	0.1013492188793927 	101366.3762771403
-1.22997997997998 	300.0353132126227 	0.1022728605488318 	101366.7533452324
-1.227477477477477 	300.0356255751967 	0.1031785280717408 	101367.1227282026
-1.224974974974975 	300.0359313810246 	0.1040647672750556 	101367.4843583514
-1.222472472472472 	300.0362305738002 	0.1049319760933549 	101367.8381691782
-1.21996996996997 	300.036523098612 	0.1057797589799161 	101368.1840956584
-1.217467467467467 	300.0368089019964 	0.1066080711117468 	101368.5220743883
-1.214964964964965 	300.0370879313859 	0.1074167206809436 	101368.8520432554
-1.212462462462462 	300.0373601356685 	0.1082055836151542 	101369.1739417522
-1.20995995995996 	300.0376254649222 	0.1089745069963109 	101369.487710831
-1.207457457457457 	300.0378838703318 	0.109723354160617 	101369.7932926183
-1.204954954954955 	300.038135304544 	0.1104519870188609 	101370.0906310655
-1.202452452452452 	300.0383797215512 	0.1111602771394809 	101370.3796718218
-1.19994994994995 	300.0386170769155 	0.1118480977661279 	101370.660362144
-1.197447447447447 	300.0388473267117 	0.1125153224168794 	101370.9326502081
-1.194944944944945 	300.0390704284677 	0.1131618268064785 	101371.196485674
-1.192442442442442 	300.0392863409786 	0.1137874938650849 	101371.4518196286
-1.18993993993994 	300.0394950249685 	0.1143922131539729 	101371.6986057407
-1.187437437437437 	300.0396964425171 	0.1149758747491524 	101371.9367990476
-1.184934934934935 	300.0398905572874 	0.1155383711156141 	101372.1663564805
-1.182432432432432 	300.0400773339416 	0.1160796010915217 	101372.387236129
-1.17992992992993 	300.0402567376057 	0.1165994684135535 	101372.5993970228
-1.177427427427427 	300.0404287350652 	0.1170978773919947 	101372.8028003708
-1.174924924924925 	300.040593294972 	0.117574733917553 	101372.997408411
-1.172422422422422 	300.0407503883137 	0.1180299510317699 	101373.1831855103
-1.16991991991992 	300.0408999855654 	0.1184634471805905 	101373.3600967119
-1.167417417417417 	300.0410420578424 	0.1188751431223838 	101373.5281100743
-1.164914914914915 	300.0411765773952 	0.1192649620188357 	101373.6871948269
-1.162412412412412 	300.0413035204172 	0.1196328328908879 	101373.8373211807
-1.15990990990991 	300.0414228673965 	0.119978689706971 	101373.9784619517
-1.157407407407407 	300.0415345978174 	0.1203024678289541 	101374.1105906745
-1.154904904904904 	300.0416386897367 	0.1206041083178118 	101374.2336842168
-1.152402402402403 	300.0417351186037 	0.1208835566285296 	101374.3477188222
-1.1498998998999 	300.0418238641284 	0.1211407612660491 	101374.4526732199
-1.147397397397397 	300.0419049121208 	0.1213756738503799 	101374.5485288202
-1.144894894894895 	300.0419782515193 	0.1215882521737839 	101374.635267394
-1.142392392392392 	300.0420438745418 	0.1217784608822112 	101374.7128748907
-1.13988988988989 	300.0421017692049 	0.1219462620990355 	101374.7813352794
-1.137387387387387 	300.0421519232336 	0.1220916229276582 	101374.8406355772
-1.134884884884885 	300.0421943249076 	0.1222145173343707 	101374.8907652006
-1.132382382382382 	300.0422289625317 	0.1223149218007308 	101374.9317131065
-1.12987987987988 	300.0422558305988 	0.1223928201782696 	101374.9634747222
-1.127377377377377 	300.0422749226484 	0.122448198572787 	101374.9860431082
-1.124874874874875 	300.0422862354634 	0.1224810488499006 	101374.9994143596
-1.122372372372372 	300.0422897693335 	0.1224913645712271 	101375.0035880426
-1.11986986986987 	300.0422855196801 	0.1224791377532591 	101374.9985585003
-1.117367367367367 	300.0422734883996 	0.1224443731418904 	101374.9843282594
-1.114864864864865 	300.0422536791191 	0.1223870768233258 	101374.9609003773
-1.112362362362362 	300.0422260943223 	0.1223072574987167 	101374.9282771551
-1.10985985985986 	300.0421907427707 	0.1222049353137595 	101374.8864691823
-1.107357357357357 	300.0421476273038 	0.1220801239542344 	101374.835479638
-1.104854854854855 	300.0420967554753 	0.1219328450643387 	101374.7753174488
-1.102352352352353 	300.042038140622 	0.1217631303925031 	101374.7059983744
-1.09984984984985 	300.0419717880007 	0.1215710048430782 	101374.6275285163
-1.097347347347347 	300.04189771323 	0.1213565081026699 	101374.5399264535
-1.094844844844845 	300.0418159323317 	0.1211196822484961 	101374.4432111914
-1.092342342342342 	300.0417264527022 	0.1208605614321752 	101374.3373913877
-1.08983983983984 	300.0416292966491 	0.1205791996511369 	101374.2224934619
-1.087337337337337 	300.0415244816796 	0.1202756461706374 	101374.0985381971
-1.084834834834835 	300.0414120185759 	0.119949946045442 	101373.9655383176
-1.082332332332332 	300.0412919371968 	0.1196021712012163 	101373.8235291159
-1.07982982982983 	300.0411642578354 	0.1192323817594932 	101373.6725346883
-1.077327327327327 	300.0410289952093 	0.1188406353019131 	101373.5125725132
-1.074824824824825 	300.0408861865761 	0.1184270221589635 	101373.3436866233
-1.072322322322323 	300.0407358555033 	0.1179916127737638 	101373.1659048854
-1.06981981981982 	300.040578018307 	0.1175344712806049 	101372.9792466743
-1.067317317317317 	300.0404127179909 	0.1170557028925266 	101372.7837629446
-1.064814814814815 	300.0402399834522 	0.116555391443072 	101372.5794877778
-1.062312312312312 	300.0400598313464 	0.1160336063721993 	101372.3664409277
-1.05980980980981 	300.0398723090553 	0.1154904666035297 	101372.144678592
-1.057307307307307 	300.0396774546052 	0.1149260751747401 	101371.9142456697
-1.054804804804805 	300.039475284641 	0.1143405042415429 	101371.6751617888
-1.052302302302302 	300.039265846272 	0.113733879152372 	101371.4274828792
-1.0497997997998 	300.0390491901458 	0.113106331404372 	101371.1712689722
-1.047297297297297 	300.0388253367276 	0.1124579425675969 	101370.9065440567
-1.044794794794795 	300.0385943257054 	0.1117888285097713 	101370.6333550387
-1.042292292292292 	300.038356219581 	0.1110991468609737 	101370.3517762419
-1.03978978978979 	300.038111054015 	0.1103890099382595 	101370.0618500718
-1.037287287287287 	300.0378588566978 	0.1096585159110733 	101369.7636086932
-1.034784784784785 	300.0375996855634 	0.1089078225954531 	101369.4571204333
-1.032282282282283 	300.0373336030415 	0.1081370984112277 	101369.1424600236
-1.02977977977978 	300.0370606436782 	0.1073464511317382 	101368.8196687778
-1.027277277277277 	300.0367808394453 	0.1065359855597824 	101368.4887834557
-1.024774774774775 	300.0364942624851 	0.105705897911822 	101368.1498886836
-1.022272272272272 	300.0362009921632 	0.1048563954203005 	101367.8030797925
-1.01976976976977 	300.0359010450031 	0.1039875566008732 	101367.448377658
-1.017267267267267 	300.0355944368094 	0.103099472300112 	101367.0857994459
-1.014764764764765 	300.0352812895557 	0.1021924383925854 	101366.7154872198
-1.012262262262262 	300.0349617106206 	0.1012666971298301 	101366.3375693318
-1.00975975975976 	300.0346356504616 	0.1003221957735282 	101365.9519908313
-1.007257257257257 	300.034303113798 	0.09935902738958832 	101365.558757299
-1.004754754754755 	300.0339643289631 	0.09837771011746116 	101365.1581340373
-1.002252252252252 	300.0336194132746 	0.09737849937903774 	101364.7502571738
-0.9997497497497498 	300.0332681833794 	0.09636108421631845 	101364.3349145145
-0.9972472472472473 	300.0329106455537 	0.09532559163638149 	101363.9121200831
-0.9947447447447449 	300.0325472088415 	0.0942729119967376 	101363.4823563004
-0.9922422422422421 	300.0321780080915 	0.09320329143587455 	101363.0457735184
-0.9897397397397399 	300.0318026483424 	0.09211594418991714 	101362.6018995735
-0.9872372372372376 	300.0314211033545 	0.09101096236865759 	101362.1507102234
-0.9847347347347346 	300.0310340616172 	0.08988988236104693 	101361.6930311863
-0.9822322322322323 	300.030641765894 	0.08875317573986004 	101361.2291519694
-0.9797297297297296 	300.0302434748075 	0.08759927620595828 	101360.7581854538
-0.9772272272272275 	300.0298389124217 	0.08642775966358161 	101360.2797928795
-0.9747247247247248 	300.0294291796603 	0.08524112081587258 	101359.7952748634
-0.9722222222222224 	300.0290150489417 	0.08404096474772695 	101359.3055568942
-0.9697197197197196 	300.0285954077586 	0.0828248145430511 	101358.8093381153
-0.9672172172172175 	300.0281690355336 	0.0815901947183254 	101358.3051790618
-0.9647147147147147 	300.027737131909 	0.08034001199170965 	101357.7944863545
-0.9622122122122124 	300.0273019278821 	0.07907916049499633 	101357.2798793364
-0.9597097097097099 	300.0268629607664 	0.07780631457990693 	101356.7608019398
-0.9572072072072073 	300.0264172454118 	0.07651475734574446 	101356.2337346621
-0.9547047047047047 	300.0259639995015 	0.07520317300314097 	101355.6977741909
-0.9522022022022023 	300.0255067901368 	0.07388007436521901 	101355.1571534939
-0.9496996996996998 	300.02504887169 	0.07255272402582759 	101354.6157165339
-0.9471971971971973 	300.0245878831326 	0.07121515951390846 	101354.0706530089
-0.9446946946946947 	300.0241182504359 	0.06985436305882849 	101353.515354453
-0.9421921921921923 	300.0236391223731 	0.0684689280618995 	101352.948808849
-0.93968968968969 	300.0231569448407 	0.06707458488753601 	101352.3786442335
-0.9371871871871872 	300.0226779406206 	0.06568592488091186 	101351.8122293788
-0.9346846846846848 	300.0221994384185 	0.06429592618974465 	101351.2464168478
-0.9321821821821823 	300.0217117478861 	0.06288104275909447 	101350.669759546
-0.9296796796796799 	300.021209618919 	0.06142911802648706 	101350.0760577567
-0.9271771771771771 	300.020699861229 	0.05995749895715764 	101349.4733615528
-0.9246746746746748 	300.020195174103 	0.05849744692633096 	101348.8766708626
-0.9221721721721724 	300.01970010819 	0.05705958413412007 	101348.2913431623
-0.9196696696696698 	300.0192047343803 	0.05561861397949318 	101347.7056221008
-0.9171671671671672 	300.0186937495712 	0.05413634769230764 	101347.1014141953
-0.9146646646646649 	300.0181622943016 	0.05260125998175156 	101346.4729881954
-0.9121621621621623 	300.0176223474323 	0.05104422330329974 	101345.8345226791
-0.9096596596596597 	300.0170926563258 	0.04951285961278923 	101345.2081885162
-0.9071571571571573 	300.0165813874607 	0.04802755733651305 	101344.6036358775
-0.9046546546546547 	300.0160777103823 	0.04656007147499371 	101344.0080534869
-0.9021521521521524 	300.0155600560028 	0.0450547504428019 	101343.3959420644
-0.8996496496496498 	300.0150139794399 	0.04347460721029084 	101342.7502349433
-0.8971471471471473 	300.014444718243 	0.04183375260094581 	101342.0771381649
-0.894644644644645 	300.0138742295667 	0.0401896915680944 	101341.4026169824
-0.892142142142142 	300.0133251529809 	0.03860167272658217 	101340.7534305678
-0.8896396396396397 	300.0128042232153 	0.03708723666077515 	101340.1375260687
-0.8871371371371374 	300.0122971618537 	0.0356084290271054 	101339.5380092461
-0.8846346346346349 	300.0117778165732 	0.03409568948430949 	101338.9239575222
-0.8821321321321324 	300.0112246959773 	0.03249182680192106 	101338.2699702841
-0.8796296296296297 	300.0106343210005 	0.03078777879346309 	101337.5719483043
-0.8771271271271271 	300.0100236714612 	0.02902928883472412 	101336.8499774696
-0.8746246246246248 	300.00942088985 	0.02729223074551633 	101336.1373315424
-0.8721221221221224 	300.008850289953 	0.02564248626746523 	101335.4627476999
-0.8696196196196196 	300.0083202742678 	0.02410304216940106 	101334.8361462882
-0.8671171171171175 	300.0078197608087 	0.0226437353682588 	101334.244413085
-0.8646146146146148 	300.0073234860562 	0.0211951592722782 	101333.6576740595
-0.8621121121121121 	300.0068024110896 	0.01967707853350772 	101333.0415995773
-0.8596096096096097 	300.0062344224397 	0.01802821077705882 	101332.3700545405
-0.857107107107107 	300.005611742204 	0.01622704463075383 	101331.6338556308
-0.8546046046046049 	300.0049432516547 	0.01429844164844119 	101330.8435141268
-0.8521021021021022 	300.0042516623664 	0.01230584179737353 	101330.0258882925
-0.8495995995995997 	300.0035669668177 	0.01033323023288531 	101329.2164382631
-0.8470970970970974 	300.0029187527987 	0.008464198760306005 	101328.4501402435
-0.8445945945945946 	300.0023304573239 	0.006765836214067671 	101327.7546955245
-0.8420920920920922 	300.0018168880235 	0.00528111394728729 	101327.1476027159
-0.8395895895895897 	300.0013842298439 	0.004028449071391023 	101326.6361672125
-0.8370870870870872 	300.0010314552491 	0.00300552736454423 	101326.2191690027
-0.8345845845845846 	300.0007523562233 	0.002195017895550599 	101325.88926544
-0.8320820820820823 	300.000537632071 	0.00157052343015712 	101325.6354593438
-0.8295795795795798 	300.0003766830388 	0.001101737935069157 	101325.4452189746
-0.8270770770770772 	300.0002589509842 	0.0007583322846382533 	101325.306062664
-0.8245745745745746 	300.0001747876303 	0.0005124934660483009 	101325.2065850835
-0.8220720720720721 	300.0001159142844 	0.0003402870356158144 	101325.1370000806
-0.8195695695695699 	300.0000755716441 	0.0002221226558855451 	101325.0893178814
-0.817067067067067 	300.0000484641777 	0.0001426183071497739 	101325.0572791442
-0.8145645645645651 	300.0000305880225 	9.01199524302803e-05 	101325.0361512689
-0.8120620620620621 	300.0000190092481 	5.607163015923903e-05 	101325.022466364
-0.8095595595595597 	300.0000116375113 	3.436698740361971e-05 	101325.0137538318
-0.8070570570570572 	300.000007021354 	2.075881810133796e-05 	101325.0082981844
-0.8045545545545546 	300.0000041766248 	1.23623777203322e-05 	101325.0049361241
-0.8020520520520523 	300.0000024504355 	7.261128677496877e-06 	101325.0028959909
-0.7995495495495494 	300.0000014184927 	4.207891236420514e-06 	101325.0016763757
-0.7970470470470474 	300.000000810419 	2.406735356204756e-06 	101325.000957755
-0.7945445445445446 	300.0000004571381 	1.359049840969154e-06 	101325.0005402363
-0.7920420420420423 	300.0000002546721 	7.579022872888131e-07 	101325.0003009467
-0.7895395395395397 	300.0000001401585 	4.175343243207171e-07 	101325.0001656131
-0.7870370370370371 	300.0000000762163 	2.272896214905217e-07 	101325.0000900564
-0.7845345345345348 	300.0000000409386 	1.222946918858513e-07 	101325.0000484011
-0.7820320320320323 	300.0000000217445 	6.504957731907158e-08 	101325.0000257165
-0.7795295295295296 	300.000000011384 	3.421969908297115e-08 	101325.0000135108
-0.7770270270270272 	300.0000000058803 	1.780140907745223e-08 	101325.0000070199
-0.7745245245245247 	300.0000000029929 	9.165496090711138e-09 	101325.0000036074
-0.7720220220220222 	300.0000000015144 	4.665690113652632e-09 	101325.0000018334
-0.7695195195195199 	300.0000000007467 	2.353873275486917e-09 	101325.0000009211
-0.767017017017017 	300.0000000003774 	1.17138408839285e-09 	101325.0000004569
-0.7645145145145147 	300.0000000002025 	5.809627478097043e-10 	101325.0000002233
-0.7620120120120122 	300.0000000001034 	2.808449044567661e-10 	101325.0000001069
-0.7595095095095097 	299.9999999999981 	1.393401409170612e-10 	101325.0000000495
-0.7570070070070072 	299.9999999999762 	6.274495331938963e-11 	101325.0000000216
-0.7545045045045048 	300.0000000000011 	3.26427262770247e-11 	101325.000000008
-0.7520020020020022 	299.9999999999769 	1.194751997026873e-11 	101325.0000000016
-0.7494994994994997 	299.9999999999737 	7.009532290223827e-12 	101324.9999999983
-0.7469969969969972 	299.9999999999981 	4.007576960367452e-12 	101324.9999999969
-0.7444944944944945 	299.999999999991 	1.790911992566773e-12 	101324.999999996
-0.7419919919919924 	299.9999999999949 	3.126856634774467e-12 	101324.9999999956
-0.7394894894894897 	299.9999999999702 	2.54545281972175e-12 	101324.9999999956
-0.7369869869869872 	299.9999999999932 	3.237353565993825e-12 	101324.9999999956
-0.7344844844844846 	299.9999999999732 	3.605671716012164e-12 	101324.9999999957
-0.7319819819819822 	300.0000000000038 	2.472597135499751e-12 	101324.9999999956
-0.7294794794794797 	299.9999999999972 	3.456908829619365e-12 	101324.9999999954
-0.7269769769769773 	300.0000000000064 	1.804705473979971e-12 	101324.9999999951
-0.7244744744744747 	300.0000000000131 	1.821127291002978e-12 	101324.9999999951
-0.721971971971972 	299.9999999999677 	1.763947629121482e-12 	101324.9999999951
-0.7194694694694695 	299.9999999999862 	1.945799193934979e-12 	101324.9999999951
-0.7169669669669674 	299.9999999999548 	1.741883286605247e-12 	101324.9999999951
-0.7144644644644647 	299.9999999999845 	1.46003197889138e-12 	101324.9999999954
-0.711961961961962 	300.0000000000065 	2.09141209419337e-12 	101324.9999999955
-0.7094594594594597 	300.0000000000111 	1.500981109156908e-12 	101324.9999999956
-0.7069569569569573 	300.0000000000167 	2.880499372354259e-12 	101324.9999999959
-0.7044544544544545 	300.0000000000206 	1.827190171500653e-12 	101324.999999996
-0.7019519519519523 	300.000000000007 	1.699660441586052e-12 	101324.9999999959
-0.6994494494494495 	299.9999999999522 	1.07148223474997e-12 	101324.9999999957
-0.6969469469469471 	299.9999999999617 	1.707105379994062e-12 	101324.9999999954
-0.6944444444444446 	299.9999999999732 	1.368276389019455e-12 	101324.9999999952
-0.6919419419419421 	300.0000000000207 	1.19641366704987e-12 	101324.999999995
-0.6894394394394396 	299.9999999999982 	7.273963811656864e-13 	101324.9999999951
-0.6869369369369374 	300.0000000000075 	6.596125070971543e-13 	101324.9999999955
-0.6844344344344344 	300.0000000000162 	5.481637170932773e-13 	101324.9999999957
-0.6819319319319321 	299.9999999999728 	6.385891834089488e-13 	101324.9999999957
-0.6794294294294296 	299.9999999999604 	8.372210533175559e-13 	101324.9999999956
-0.6769269269269272 	299.9999999999417 	2.012156039269557e-12 	101324.9999999956
-0.6744244244244245 	299.9999999999794 	2.346395073741969e-12 	101324.9999999956
-0.6719219219219222 	299.9999999999708 	2.539653929583322e-12 	101324.9999999959
-0.6694194194194195 	299.9999999999986 	3.006391171190686e-12 	101324.999999996
-0.6669169169169172 	300.0000000000124 	2.224413564507683e-12 	101324.9999999959
-0.6644144144144146 	299.9999999999774 	2.646284462370838e-12 	101324.9999999961
-0.661911911911912 	299.9999999999756 	2.384343715252875e-12 	101324.9999999963
-0.6594094094094097 	299.9999999999839 	2.936168842018991e-12 	101324.9999999964
-0.656906906906907 	299.9999999999604 	2.063634973108556e-12 	101324.9999999964
-0.6544044044044046 	299.999999999962 	3.64764039377648e-12 	101324.9999999962
-0.6519019019019021 	299.9999999999901 	2.745646787071581e-12 	101324.999999996
-0.6493993993993996 	300.0000000000151 	4.820906025138472e-12 	101324.9999999957
-0.6468968968968971 	300.0000000000203 	2.105493166921285e-12 	101324.9999999956
-0.6443943943943946 	299.9999999999981 	4.287921313058769e-12 	101324.9999999956
-0.6418918918918921 	299.9999999999996 	2.418236357121841e-12 	101324.9999999958
-0.6393893893893897 	300.0000000000018 	2.948658151170966e-12 	101324.9999999958
-0.6368868868868871 	299.9999999999858 	1.870145542161855e-12 	101324.9999999957
-0.6343843843843846 	299.9999999999931 	1.995182601554164e-12 	101324.9999999955
-0.6318818818818821 	299.999999999964 	1.77786655454415e-12 	101324.9999999954
-0.6293793793793795 	300.0000000000026 	1.50354092708484e-12 	101324.9999999954
-0.6268768768768773 	300.0000000000128 	1.742779911752122e-12 	101324.9999999954
-0.6243743743743745 	299.9999999999891 	6.676741306591402e-13 	101324.9999999951
-0.6218718718718721 	300.0000000000064 	1.203581359643058e-12 	101324.9999999951
-0.6193693693693696 	299.9999999999538 	1.101833994561474e-12 	101324.999999995
-0.6168668668668671 	299.9999999999853 	1.82680192652541e-12 	101324.9999999951
-0.6143643643643645 	300.0000000000109 	9.162415104430405e-13 	101324.9999999952
-0.6118618618618621 	299.9999999999911 	1.389144429707389e-12 	101324.999999995
-0.6093593593593596 	299.999999999994 	9.258154645849511e-13 	101324.9999999949
-0.6068568568568571 	299.999999999996 	1.659448572815978e-12 	101324.9999999949
-0.6043543543543546 	299.999999999971 	1.598332255930078e-12 	101324.9999999951
-0.6018518518518521 	299.9999999999756 	2.625695780408066e-12 	101324.9999999952
-0.5993493493493496 	299.9999999999631 	1.850485931475362e-12 	101324.9999999954
-0.5968468468468471 	299.9999999999675 	2.469932866659169e-12 	101324.9999999953
-0.5943443443443446 	299.9999999999968 	1.108933894408306e-12 	101324.9999999952
-0.591841841841842 	299.9999999999703 	2.57465492895331e-12 	101324.999999995
-0.5893393393393397 	299.9999999999632 	1.086460081319176e-12 	101324.9999999952
-0.5868368368368371 	299.9999999999975 	2.867359207816954e-12 	101324.9999999951
-0.5843343343343346 	300.0000000000077 	1.262345548522552e-12 	101324.9999999952
-0.5818318318318321 	300.0000000000185 	3.115319195662922e-12 	101324.9999999955
-0.5793293293293297 	299.9999999999906 	1.51040665253982e-12 	101324.9999999956
-0.5768268268268271 	300.0000000000039 	1.774563800766615e-12 	101324.9999999957
-0.5743243243243245 	300.0000000000135 	1.179077188539562e-12 	101324.9999999957
-0.5718218218218221 	300.0000000000138 	4.677592709598622e-13 	101324.9999999958
-0.5693193193193196 	300.0000000000281 	1.135807591009383e-12 	101324.9999999958
-0.5668168168168171 	299.9999999999901 	2.219994823449927e-12 	101324.9999999958
-0.5643143143143147 	299.9999999999648 	1.490667627378825e-12 	101324.9999999959
-0.5618118118118121 	300.0000000000109 	2.148564835890241e-12 	101324.9999999959
-0.5593093093093094 	300.0000000000254 	8.353261526226804e-13 	101324.9999999958
-0.5568068068068072 	300.0000000000139 	1.230290865143076e-12 	101324.9999999956
-0.5543043043043046 	300.0000000000149 	8.215014989047962e-13 	101324.9999999956
-0.551801801801802 	299.9999999999708 	1.475427670414148e-12 	101324.9999999955
-0.5492992992992995 	299.9999999999964 	6.520106857722225e-13 	101324.9999999955
-0.5467967967967969 	300.0000000000075 	1.122427861349443e-12 	101324.9999999956
-0.5442942942942947 	300.0000000000044 	1.385929182814643e-12 	101324.9999999955
-0.5417917917917919 	299.9999999999717 	2.672375221039453e-12 	101324.9999999954
-0.5392892892892895 	299.9999999999551 	1.000871432686185e-12 	101324.9999999952
-0.536786786786787 	299.9999999999668 	1.956772060936782e-12 	101324.9999999953
-0.5342842842842846 	299.9999999999708 	8.141315577942748e-13 	101324.9999999953
-0.531781781781782 	299.999999999952 	2.038713691948862e-12 	101324.9999999954
-0.5292792792792794 	299.999999999949 	2.336982285715066e-12 	101324.9999999953
-0.526776776776777 	299.9999999999381 	2.560690267274682e-12 	101324.9999999951
-0.5242742742742745 	299.9999999999828 	3.667653145795541e-12 	101324.999999995
-0.521771771771772 	300.0000000000136 	3.741509910699123e-12 	101324.9999999952
-0.5192692692692695 	299.9999999999737 	4.673168656650077e-12 	101324.9999999954
-0.516766766766767 	300.0000000000011 	3.903113837171713e-12 	101324.9999999953
-0.5142642642642645 	299.9999999999857 	4.169459145385591e-12 	101324.9999999954
-0.511761761761762 	299.9999999999699 	3.22823195145025e-12 	101324.9999999953
-0.5092592592592596 	299.999999999981 	3.234825704156765e-12 	101324.9999999952
-0.506756756756757 	299.9999999999594 	2.680256066876825e-12 	101324.9999999947
-0.5042542542542544 	299.9999999999941 	2.064872071741471e-12 	101324.9999999948
-0.5017517517517521 	300.0000000000189 	2.400556852547954e-12 	101324.999999995
-0.4992492492492494 	300.0000000000223 	1.020061508974361e-12 	101324.999999995
-0.496746746746747 	299.9999999999922 	1.925313668485968e-12 	101324.9999999948
-0.4942442442442445 	299.9999999999619 	7.020800175239247e-13 	101324.9999999946
-0.4917417417417421 	299.9999999999612 	1.451790951588698e-12 	101324.9999999946
-0.4892392392392395 	299.9999999999689 	8.393208672028177e-13 	101324.9999999946
-0.486736736736737 	299.9999999999704 	1.543797657219283e-12 	101324.9999999947
-0.4842342342342345 	299.9999999999471 	8.872282037798497e-13 	101324.9999999945
-0.481731731731732 	300.0000000000245 	1.978461092111519e-12 	101324.9999999945
-0.4792292292292296 	300.0000000000145 	1.059196046491475e-12 	101324.9999999946
-0.4767267267267268 	299.9999999999703 	2.735708397646792e-12 	101324.9999999947
-0.4742242242242246 	299.9999999999984 	2.567214682094465e-12 	101324.9999999946
-0.471721721721722 	299.9999999999692 	1.992547822907997e-12 	101324.9999999944
-0.4692192192192195 	299.9999999999816 	2.03670254222479e-12 	101324.9999999945
-0.4667167167167169 	299.9999999999403 	1.000776041190456e-12 	101324.9999999946
-0.4642142142142145 	299.999999999997 	2.236838741524458e-12 	101324.9999999945
-0.461711711711712 	300.0000000000135 	5.847325944614197e-13 	101324.9999999947
-0.4592092092092094 	300.0000000000082 	2.053340061620169e-12 	101324.9999999949
-0.456706706706707 	300.0000000000388 	7.123991823839487e-13 	101324.999999995
-0.4542042042042045 	299.999999999958 	9.41580645871387e-13 	101324.9999999949
-0.451701701701702 	299.999999999965 	3.950523167907304e-13 	101324.9999999951
-0.4491991991991995 	299.9999999999731 	1.492263579395981e-12 	101324.999999995
-0.4466966966966969 	299.9999999999707 	9.414527934598442e-13 	101324.9999999948
-0.4441941941941945 	299.9999999999939 	2.864707223733634e-12 	101324.9999999948
-0.441691691691692 	299.9999999999706 	7.476769230782412e-13 	101324.999999995
-0.4391891891891895 	299.9999999999902 	2.737883235079838e-12 	101324.9999999953
-0.436686686686687 	299.9999999999781 	2.133356273506074e-12 	101324.9999999952
-0.4341841841841846 	300.0000000000009 	2.942283211650377e-12 	101324.999999995
-0.431681681681682 	299.9999999999675 	2.45902701710567e-12 	101324.9999999945
-0.4291791791791794 	299.9999999999412 	1.500018861083538e-12 	101324.9999999943
-0.426676676676677 	299.9999999999419 	1.446404184227182e-12 	101324.9999999942
-0.4241741741741744 	299.9999999999777 	2.061588212302712e-12 	101324.999999994
-0.421671671671672 	300.0000000000001 	6.240149249420416e-13 	101324.999999994
-0.4191691691691694 	300.0000000000279 	8.384179018766499e-13 	101324.999999994
-0.4166666666666669 	300.0000000000333 	9.675480398039831e-13 	101324.9999999939
-0.4141641641641645 	299.9999999999554 	4.833798249539663e-13 	101324.999999994
-0.411661661661662 	300.0000000000022 	5.253554112940713e-13 	101324.999999994
-0.4091591591591594 	300.0000000000101 	2.023778506794395e-13 	101324.9999999941
-0.406656656656657 	299.9999999999675 	5.432494695901401e-13 	101324.9999999943
-0.4041541541541545 	300.0000000000103 	8.164820947926637e-13 	101324.9999999942
-0.401651651651652 	299.9999999999494 	2.017845660460236e-12 	101324.9999999944
-0.3991491491491494 	300.0000000000009 	1.188798131897441e-12 	101324.9999999943
-0.396646646646647 	299.9999999999691 	3.386917947808206e-12 	101324.9999999944
-0.3941441441441444 	299.9999999999824 	1.475719333822805e-12 	101324.9999999942
-0.3916416416416419 	299.9999999999502 	3.715225112239599e-12 	101324.999999994
-0.3891391391391395 	299.9999999999692 	7.940082241950274e-13 	101324.9999999942
-0.3866366366366368 	299.9999999999715 	2.316231919598735e-12 	101324.9999999941
-0.3841341341341344 	299.9999999999989 	8.507462819930782e-13 	101324.9999999942
-0.381631631631632 	299.9999999999701 	8.587148994879648e-13 	101324.9999999942
-0.3791291291291294 	300.0000000000004 	3.890006147191949e-13 	101324.9999999944
-0.3766266266266269 	300.0000000000123 	9.892978148716043e-14 	101324.9999999943
-0.3741241241241244 	300.0000000000127 	1.310876088063175e-12 	101324.9999999943
-0.371621621621622 	300.0000000000138 	2.831378151438826e-13 	101324.9999999943
-0.3691191191191194 	300.0000000000012 	3.06609025255722e-12 	101324.9999999942
-0.366616616616617 	300.0000000000051 	7.616728422505968e-13 	101324.9999999943
-0.3641141141141143 	299.9999999999865 	3.13899404589165e-12 	101324.9999999939
-0.3616116116116119 	299.9999999999617 	1.596365997332914e-12 	101324.9999999941
-0.3591091091091095 	299.9999999999899 	2.728508403008825e-12 	101324.9999999942
-0.356606606606607 	299.9999999999941 	1.970810183467557e-12 	101324.9999999943
-0.3541041041041044 	299.9999999999901 	1.567549636692995e-12 	101324.9999999943
-0.3516016016016019 	300.0000000000079 	1.701254127616266e-12 	101324.9999999943
-0.3490990990990994 	299.999999999991 	4.975928963777995e-13 	101324.9999999944
-0.346596596596597 	300.0000000000225 	2.422107888376403e-12 	101324.9999999946
-0.3440940940940944 	300.0000000000279 	7.075958221720848e-13 	101324.9999999946
-0.3415915915915919 	300.0000000000203 	2.609690322151943e-12 	101324.9999999944
-0.3390890890890895 	299.999999999989 	1.182007301629226e-12 	101324.9999999943
-0.3365865865865869 	300.000000000011 	2.079103394149363e-12 	101324.9999999944
-0.3340840840840844 	299.9999999999968 	1.422113273552344e-12 	101324.9999999942
-0.3315815815815819 	300.0000000000159 	2.334384817908996e-12 	101324.9999999943
-0.3290790790790794 	300.0000000000157 	2.043118124189109e-12 	101324.9999999944
-0.3265765765765769 	299.9999999999573 	2.518170860069223e-12 	101324.9999999944
-0.3240740740740744 	300.0000000000024 	1.863161456333852e-12 	101324.9999999942
-0.3215715715715718 	300.0000000000088 	3.536670781910343e-12 	101324.9999999941
-0.3190690690690695 	299.9999999999524 	2.933645119828094e-12 	101324.9999999942
-0.3165665665665668 	299.9999999999912 	4.395204315143017e-12 	101324.9999999946
-0.3140640640640644 	299.9999999999981 	2.630122123547623e-12 	101324.9999999946
-0.311561561561562 	299.9999999999516 	4.85132904877227e-12 	101324.9999999943
-0.3090590590590593 	299.9999999999935 	1.301011025467525e-12 	101324.9999999943
-0.3065565565565568 	300.0000000000012 	5.637671611568308e-12 	101324.9999999939
-0.3040540540540545 	300.0000000000031 	1.371435452917876e-12 	101324.9999999938
-0.3015515515515518 	300.0000000000141 	5.472107156746569e-12 	101324.9999999939
-0.2990490490490494 	299.9999999999604 	2.912302310687345e-12 	101324.9999999941
-0.2965465465465469 	299.9999999999906 	4.822997240947923e-12 	101324.9999999939
-0.2940440440440444 	299.9999999999916 	3.722942953213241e-12 	101324.999999994
-0.2915415415415418 	300.0000000000049 	4.136354164666295e-12 	101324.999999994
-0.2890390390390395 	300.0000000000043 	4.872109825399715e-12 	101324.9999999939
-0.2865365365365368 	299.9999999999811 	4.089867384999186e-12 	101324.9999999938
-0.2840340340340343 	299.9999999999976 	6.126384014607491e-12 	101324.999999994
-0.2815315315315318 	299.999999999952 	4.928591801865488e-12 	101324.9999999941
-0.2790290290290295 	299.9999999999779 	6.385401528543474e-12 	101324.9999999943
-0.2765265265265269 	300.0000000000101 	5.583695259702504e-12 	101324.9999999943
-0.2740240240240244 	300.000000000018 	6.00301593789545e-12 	101324.9999999945
-0.2715215215215219 	300.0000000000092 	6.171057127985402e-12 	101324.9999999947
-0.2690190190190194 	299.9999999999621 	5.595437910233902e-12 	101324.9999999943
-0.2665165165165169 	299.9999999999961 	6.319690739578458e-12 	101324.9999999945
-0.2640140140140144 	299.9999999999811 	4.973875517466132e-12 	101324.9999999945
-0.2615115115115119 	299.999999999997 	7.08823656019404e-12 	101324.9999999946
-0.2590090090090094 	299.9999999999551 	4.757967413437773e-12 	101324.9999999947
-0.2565065065065068 	299.9999999999937 	5.915952761021772e-12 	101324.9999999946
-0.2540040040040044 	299.999999999996 	5.544023085734281e-12 	101324.9999999942
-0.2515015015015019 	300.0000000000226 	5.32902405914303e-12 	101324.9999999942
-0.2489989989989994 	300.0000000000302 	6.825717300086004e-12 	101324.9999999945
-0.2464964964964968 	299.9999999999927 	4.77565016638678e-12 	101324.9999999945
-0.2439939939939944 	299.9999999999972 	7.755714980927306e-12 	101324.9999999944
-0.2414914914914919 	299.9999999999808 	4.673032860702797e-12 	101324.9999999943
-0.2389889889889893 	299.9999999999995 	7.482051468357449e-12 	101324.9999999943
-0.2364864864864869 	300.0000000000146 	3.996976268426959e-12 	101324.999999994
-0.2339839839839843 	299.9999999999541 	7.394537261487983e-12 	101324.9999999939
-0.2314814814814819 	299.9999999999829 	3.604066540103579e-12 	101324.999999994
-0.2289789789789792 	299.9999999999496 	6.483460211353055e-12 	101324.999999994
-0.2264764764764769 	299.9999999999621 	4.531756791312283e-12 	101324.9999999942
-0.2239739739739743 	299.9999999999754 	5.910109917857005e-12 	101324.9999999939
-0.2214714714714718 	299.9999999999627 	4.938466546875954e-12 	101324.999999994
-0.2189689689689693 	299.9999999999806 	3.907758233937473e-12 	101324.9999999939
-0.2164664664664669 	299.9999999999858 	5.230182427735164e-12 	101324.999999994
-0.2139639639639643 	299.9999999999538 	3.153105663527909e-12 	101324.999999994
-0.2114614614614618 	299.999999999981 	3.979766243192419e-12 	101324.9999999938
-0.2089589589589593 	299.9999999999959 	3.075111987122289e-12 	101324.9999999939
-0.2064564564564568 	299.9999999999956 	2.588094735751344e-12 	101324.9999999937
-0.2039539539539543 	299.9999999999434 	3.038861593435677e-12 	101324.9999999936
-0.2014514514514518 	299.9999999999618 	1.14451414095165e-12 	101324.9999999937
-0.1989489489489494 	299.9999999999851 	4.073801899889413e-12 	101324.9999999937
-0.1964464464464468 	299.9999999999976 	1.973007926852354e-12 	101324.999999994
-0.1939439439439443 	299.9999999999906 	5.13388751824703e-12 	101324.9999999943
-0.1914414414414418 	299.9999999999523 	3.386751648903125e-12 	101324.9999999941
-0.1889389389389393 	299.9999999999986 	5.066099826096353e-12 	101324.9999999939
-0.1864364364364368 	300.0000000000219 	4.836437713872798e-12 	101324.999999994
-0.1839339339339343 	299.999999999984 	5.892618227511406e-12 	101324.9999999942
-0.1814314314314318 	299.9999999999945 	5.60798994106827e-12 	101324.9999999941
-0.1789289289289293 	299.9999999999396 	6.088053081912457e-12 	101324.9999999941
-0.1764264264264268 	299.9999999999826 	4.285436232793687e-12 	101324.9999999938
-0.1739239239239243 	299.9999999999362 	4.923885023696003e-12 	101324.9999999939
-0.1714214214214218 	299.9999999999919 	2.534832837163342e-12 	101324.999999994
-0.1689189189189193 	299.9999999999716 	4.522668958617683e-12 	101324.9999999938
-0.1664164164164168 	300.0000000000016 	1.046570101881248e-12 	101324.9999999937
-0.1639139139139143 	299.9999999999916 	5.495525198353653e-12 	101324.9999999939
-0.1614114114114118 	300.0000000000206 	9.110958969212977e-13 	101324.9999999942
-0.1589089089089093 	299.9999999999982 	7.481215072850116e-12 	101324.9999999941
-0.1564064064064068 	299.9999999999905 	2.07189259969628e-12 	101324.9999999938
-0.1539039039039043 	299.9999999999972 	7.394291173911394e-12 	101324.9999999936
-0.1514014014014018 	300.0000000000164 	1.646150975702725e-12 	101324.999999994
-0.1488988988988993 	300.0000000000034 	7.674735494867181e-12 	101324.999999994
-0.1463963963963968 	300.0000000000034 	1.953562629501331e-12 	101324.9999999941
-0.1438938938938943 	299.9999999999731 	7.106487206517755e-12 	101324.999999994
-0.1413913913913918 	299.9999999999503 	2.359082542614225e-12 	101324.9999999938
-0.1388888888888893 	299.9999999999841 	5.059251897776576e-12 	101324.9999999935
-0.1363863863863868 	299.9999999999308 	3.309629762757653e-12 	101324.9999999934
-0.1338838838838843 	299.9999999999537 	3.814851226937512e-12 	101324.9999999937
-0.1313813813813818 	299.9999999999931 	2.63155120993153e-12 	101324.9999999936
-0.1288788788788793 	299.9999999999784 	3.852829660398861e-12 	101324.999999994
-0.1263763763763768 	299.9999999999779 	2.339134861933007e-12 	101324.9999999941
-0.1238738738738743 	299.9999999999564 	3.580006552489042e-12 	101324.999999994
-0.1213713713713717 	299.9999999999878 	1.53137190949393e-12 	101324.9999999942
-0.1188688688688693 	300.0000000000052 	4.823479560648255e-12 	101324.9999999941
-0.1163663663663668 	299.99999999994 	1.645133722724929e-12 	101324.9999999939
-0.1138638638638643 	299.9999999999946 	5.376428069143542e-12 	101324.9999999938
-0.1113613613613618 	299.9999999999909 	6.197808022347614e-13 	101324.9999999937
-0.1088588588588592 	299.9999999999876 	4.87232152399008e-12 	101324.9999999937
-0.1063563563563568 	299.9999999999703 	5.64837715267078e-13 	101324.9999999937
-0.1038538538538543 	299.9999999999874 	3.842352026216365e-12 	101324.9999999936
-0.1013513513513517 	300.0000000000099 	1.851094201484928e-12 	101324.9999999936
-0.09884884884884926 	299.9999999999592 	4.46627095139823e-12 	101324.9999999938
-0.09634634634634676 	299.9999999999412 	2.597902521854863e-12 	101324.9999999945
-0.09384384384384425 	299.9999999999543 	3.551666611419133e-12 	101324.9999999945
-0.09134134134134177 	300.0000000000136 	2.697342475612285e-12 	101324.999999994
-0.08883883883883925 	300.0000000000049 	4.089253305075764e-12 	101324.9999999945
-0.08633633633633674 	299.9999999999725 	3.488774054605456e-12 	101324.9999999947
-0.08383383383383426 	300.0000000000036 	3.34386381392679e-12 	101324.9999999945
-0.08133133133133173 	299.9999999999776 	3.542476752119676e-12 	101324.9999999941
-0.07882882882882926 	299.9999999999321 	3.245582427923314e-12 	101324.9999999943
-0.07632632632632676 	299.9999999999716 	3.085082902957517e-12 	101324.9999999943
-0.07382382382382424 	299.999999999933 	2.884239893731976e-12 	101324.9999999945
-0.07132132132132173 	300.000000000009 	2.480694988654587e-12 	101324.9999999943
-0.06881881881881925 	299.9999999999797 	2.738749038451063e-12 	101324.9999999945
-0.06631631631631671 	299.9999999999339 	2.165906887290686e-12 	101324.9999999942
-0.06381381381381425 	299.9999999999742 	1.482368605333335e-12 	101324.9999999941
-0.06131131131131173 	299.9999999999753 	1.427956837708826e-12 	101324.9999999943
-0.05880880880880923 	299.9999999999451 	6.900990780828171e-13 	101324.9999999942
-0.05630630630630672 	299.9999999999828 	6.360608020590872e-14 	101324.9999999943
-0.05380380380380424 	300.0000000000105 	1.556620805244768e-13 	101324.9999999943
-0.05130130130130173 	300.0000000000092 	1.223081611688489e-12 	101324.9999999945
-0.04879879879879922 	299.9999999999647 	1.847871399645303e-12 	101324.999999994
-0.04629629629629672 	299.999999999956 	1.379269171936455e-12 	101324.999999994
-0.04379379379379422 	299.9999999999458 	1.138645424329622e-12 	101324.9999999939
-0.04129129129129173 	299.9999999999887 	5.974249348790814e-14 	101324.999999994
-0.03878878878878922 	299.9999999999897 	2.044073063028563e-13 	101324.999999994
-0.03628628628628671 	299.99999999999 	7.963179121109397e-13 	101324.999999994
-0.03378378378378422 	299.9999999999498 	7.19119017251794e-13 	101324.9999999943
-0.03128128128128172 	299.9999999999758 	9.70382472684306e-13 	101324.9999999944
-0.02877877877877922 	299.9999999999745 	2.255682061119939e-13 	101324.9999999944
-0.0262762762762767 	299.9999999999368 	5.873636705223149e-14 	101324.9999999943
-0.02377377377377422 	300.0000000000152 	2.144005890105972e-13 	101324.9999999943
-0.0212712712712717 	299.9999999999397 	3.930622845694139e-13 	101324.9999999946
-0.01876876876876921 	299.9999999999793 	3.303193325670729e-13 	101324.9999999944
-0.01626626626626671 	300.0000000000059 	5.177399281876033e-13 	101324.9999999946
-0.0137637637637642 	299.9999999999771 	6.327306748793282e-13 	101324.9999999944
-0.0112612612612617 	300.0000000000121 	9.674021506787495e-13 	101324.9999999944
-0.008758758758759198 	299.9999999999971 	1.074744235966483e-12 	101324.9999999945
-0.006256256256256697 	299.9999999999256 	9.827946988720294e-13 	101324.9999999947
-0.003753753753754195 	299.9999999999714 	8.274553382172234e-15 	101324.9999999944
-0.001251251251251693 	299.999999999954 	2.114409768667937e-13 	101324.9999999944
0.00125125125125081 	299.9999999999697 	1.007545073126751e-12 	101324.9999999945
0.003753753753753312 	299.9999999999752 	1.799718952474643e-13 	101324.9999999941
0.006256256256255817 	299.9999999999297 	6.923944086830686e-13 	101324.9999999941
0.008758758758758317 	299.9999999999914 	4.832234685920244e-13 	101324.9999999944
0.01126126126126082 	299.9999999999981 	5.664354251057969e-13 	101324.9999999944
0.01376376376376332 	299.9999999999829 	7.937457135284886e-13 	101324.9999999943
0.01626626626626582 	300.000000000006 	7.161801590480087e-13 	101324.9999999943
0.01876876876876833 	299.9999999999696 	3.014003723689632e-13 	101324.9999999943
0.02127127127127083 	299.9999999999828 	3.440441662756963e-13 	101324.9999999946
0.02377377377377332 	299.9999999999949 	2.586637188424028e-13 	101324.9999999948
0.02627627627627583 	299.9999999999362 	1.560241296064891e-13 	101324.9999999946
0.02877877877877833 	300.0000000000035 	5.452122173127087e-13 	101324.9999999946
0.03128128128128083 	299.9999999999666 	3.578885462084501e-13 	101324.9999999945
0.03378378378378333 	299.9999999999363 	1.306262853584929e-12 	101324.9999999946
0.03628628628628584 	299.9999999999828 	7.791906642519231e-13 	101324.9999999947
0.03878878878878834 	299.9999999999878 	7.576783011684411e-13 	101324.9999999946
0.04129129129129084 	299.9999999999868 	8.356257290455871e-13 	101324.9999999946
0.04379379379379333 	299.999999999966 	1.209686798520823e-12 	101324.9999999945
0.04629629629629585 	299.9999999999283 	1.586953096325938e-12 	101324.9999999946
0.04879879879879834 	299.9999999999727 	3.133724407767162e-12 	101324.9999999949
0.05130130130130085 	300.0000000000074 	3.028604594772564e-12 	101324.9999999952
0.05380380380380335 	300.0000000000152 	3.264624467531383e-12 	101324.9999999951
0.05630630630630584 	299.9999999999968 	3.300286889588656e-12 	101324.9999999951
0.05880880880880836 	299.9999999999511 	3.590186620371826e-12 	101324.9999999952
0.06131131131131085 	299.9999999999827 	3.033323335994241e-12 	101324.9999999951
0.06381381381381336 	299.9999999999742 	2.908798009457926e-12 	101324.999999995
0.06631631631631586 	299.9999999999317 	2.797687457755413e-12 	101324.9999999952
0.06881881881881835 	299.9999999999714 	3.723587996680041e-12 	101324.9999999954
0.07132132132132088 	299.9999999999947 	3.952956318719073e-12 	101324.9999999953
0.07382382382382337 	299.9999999999388 	4.791431109583953e-12 	101324.9999999956
0.07632632632632587 	299.9999999999801 	4.391756230933858e-12 	101324.9999999954
0.07882882882882837 	299.9999999999592 	3.461288354865176e-12 	101324.9999999952
0.08133133133133086 	299.9999999999895 	3.082915472110704e-12 	101324.9999999951
0.08383383383383337 	299.9999999999918 	2.670184887960464e-12 	101324.9999999948
0.08633633633633589 	299.9999999999391 	3.330307263575999e-12 	101324.9999999944
0.08883883883883838 	300.0000000000043 	3.894694933982112e-12 	101324.9999999944
0.09134134134134086 	299.9999999999845 	3.529431358764577e-12 	101324.9999999945
0.09384384384384339 	299.9999999999367 	4.221762243033581e-12 	101324.9999999946
0.09634634634634588 	299.9999999999789 	3.83577182385291e-12 	101324.9999999943
0.09884884884884838 	299.9999999999853 	3.64570498436025e-12 	101324.9999999944
0.1013513513513509 	300.0000000000141 	3.83231708716823e-12 	101324.9999999946
0.1038538538538534 	299.9999999999721 	4.014241408778189e-12 	101324.9999999947
0.1063563563563559 	300.0000000000006 	4.23699760949473e-12 	101324.9999999947
0.1088588588588584 	300.0000000000164 	3.371697534585063e-12 	101324.9999999945
0.1113613613613609 	299.9999999999574 	3.765945977233947e-12 	101324.9999999942
0.1138638638638634 	299.9999999999617 	4.136413086612001e-12 	101324.9999999942
0.1163663663663659 	299.9999999999625 	4.364312373916308e-12 	101324.9999999941
0.1188688688688684 	299.9999999999871 	4.655431512882933e-12 	101324.9999999942
0.1213713713713709 	300.0000000000035 	4.061390627352359e-12 	101324.999999994
0.1238738738738734 	299.9999999999537 	4.014956178008475e-12 	101324.9999999943
0.1263763763763759 	299.9999999999935 	3.271124922191016e-12 	101324.9999999944
0.1288788788788784 	299.9999999999893 	2.461995010906008e-12 	101324.9999999942
0.1313813813813809 	299.9999999999866 	2.586316094064641e-12 	101324.9999999944
0.1338838838838834 	299.9999999999832 	3.150207965096601e-12 	101324.9999999942
0.1363863863863859 	300.0000000000077 	3.310455612612865e-12 	101324.999999994
0.1388888888888884 	300.0000000000229 	3.827882833778282e-12 	101324.9999999945
0.1413913913913909 	300.000000000003 	3.894678626874153e-12 	101324.9999999946
0.1438938938938934 	299.9999999999947 	3.601945728987114e-12 	101324.9999999945
0.1463963963963959 	299.9999999999699 	2.900670399093418e-12 	101324.9999999944
0.1488988988988985 	299.9999999999454 	4.341375697218823e-12 	101324.9999999946
0.1514014014014009 	299.9999999999774 	3.277827108553486e-12 	101324.9999999945
0.1539039039039035 	299.9999999999773 	4.401286585264796e-12 	101324.9999999942
0.1564064064064059 	299.9999999999603 	2.443562883788363e-12 	101324.9999999943
0.1589089089089084 	299.9999999999822 	5.40200048066158e-12 	101324.9999999944
0.1614114114114109 	299.9999999999812 	3.003439295023534e-12 	101324.9999999943
0.1639139139139134 	299.9999999999451 	4.674984869218386e-12 	101324.9999999944
0.166416416416416 	300.0000000000018 	3.954200037791997e-12 	101324.9999999943
0.1689189189189185 	300.0000000000178 	4.143098852648451e-12 	101324.9999999941
0.1714214214214209 	300.0000000000014 	5.046654742563709e-12 	101324.999999994
0.1739239239239235 	299.9999999999892 	3.755877009123595e-12 	101324.9999999938
0.1764264264264259 	299.9999999999812 	5.940417152119632e-12 	101324.9999999936
0.1789289289289284 	300.0000000000002 	3.485633969476927e-12 	101324.9999999934
0.181431431431431 	299.9999999999752 	6.302871118340784e-12 	101324.999999993
0.1839339339339334 	299.9999999999807 	3.889535768182841e-12 	101324.999999993
0.186436436436436 	299.9999999999572 	4.809493125449429e-12 	101324.9999999931
0.1889389389389385 	299.9999999999809 	3.821373035609763e-12 	101324.999999993
0.191441441441441 	299.9999999999833 	4.301351233494817e-12 	101324.9999999929
0.1939439439439434 	299.9999999999509 	5.804291112418182e-12 	101324.9999999932
0.196446446446446 	299.9999999999697 	4.342414786915963e-12 	101324.9999999936
0.1989489489489485 	299.9999999999737 	6.231443082548647e-12 	101324.9999999939
0.2014514514514509 	299.9999999999902 	4.098360636810845e-12 	101324.9999999938
0.2039539539539535 	299.9999999999959 	5.457512590113001e-12 	101324.9999999944
0.2064564564564559 	299.999999999968 	5.023333212074601e-12 	101324.9999999941
0.2089589589589585 	299.9999999999915 	5.424579801244314e-12 	101324.9999999942
0.211461461461461 	299.9999999999587 	5.400028237238607e-12 	101324.9999999943
0.2139639639639635 	299.9999999999851 	5.554094227940008e-12 	101324.9999999948
0.2164664664664659 	300.0000000000022 	6.156542910683209e-12 	101324.9999999951
0.2189689689689684 	300.0000000000014 	3.868274182418158e-12 	101324.9999999951
0.221471471471471 	299.9999999999976 	5.630912752915997e-12 	101324.9999999951
0.2239739739739735 	299.9999999999728 	3.894068620473359e-12 	101324.9999999948
0.226476476476476 	299.9999999999883 	5.350679136835584e-12 	101324.9999999943
0.2289789789789785 	299.9999999999973 	4.011593943762365e-12 	101324.9999999943
0.231481481481481 	299.9999999999916 	4.320043033488538e-12 	101324.9999999943
0.2339839839839835 	299.9999999999902 	5.166086573592649e-12 	101324.9999999944
0.236486486486486 	300.0000000000167 	4.776962379493271e-12 	101324.9999999944
0.2389889889889885 	300.0000000000031 	5.239205096174854e-12 	101324.9999999947
0.241491491491491 	299.9999999999484 	2.991423107608146e-12 	101324.9999999943
0.2439939939939935 	299.9999999999844 	5.873203433711057e-12 	101324.9999999939
0.246496496496496 	299.9999999999911 	4.284620875028506e-12 	101324.9999999939
0.2489989989989985 	300.0000000000218 	5.729168287136953e-12 	101324.9999999941
0.251501501501501 	300.0000000000182 	4.679135472948682e-12 	101324.9999999937
0.2540040040040035 	299.9999999999937 	4.159952177108043e-12 	101324.9999999935
0.256506506506506 	300.0000000000163 	4.004545110177432e-12 	101324.9999999936
0.2590090090090086 	299.9999999999492 	2.541801343865893e-12 	101324.9999999937
0.261511511511511 	300.0000000000014 	5.03854101025411e-12 	101324.9999999936
0.2640140140140135 	299.9999999999942 	2.517286987316175e-12 	101324.9999999939
0.2665165165165161 	299.9999999999566 	4.251506818182953e-12 	101324.9999999939
0.2690190190190185 	300.0000000000063 	3.04956692260769e-12 	101324.9999999942
0.271521521521521 	300.0000000000088 	3.212770918620742e-12 	101324.9999999941
0.2740240240240235 	300.0000000000121 	3.595242381371803e-12 	101324.9999999939
0.276526526526526 	300.0000000000066 	2.812588886010152e-12 	101324.9999999942
0.2790290290290286 	299.9999999999667 	4.050857623720172e-12 	101324.9999999941
0.281531531531531 	299.9999999999548 	3.073133977250361e-12 	101324.999999994
0.2840340340340335 	299.9999999999916 	4.758338324427732e-12 	101324.9999999938
0.2865365365365361 	299.9999999999757 	2.898700813859895e-12 	101324.9999999938
0.2890390390390385 	299.9999999999952 	3.205344343794146e-12 	101324.999999994
0.291541541541541 	299.9999999999959 	2.049012740994031e-12 	101324.9999999942
0.2940440440440436 	299.999999999992 	1.189703274906143e-12 	101324.9999999944
0.296546546546546 	299.9999999999925 	2.254309393440543e-12 	101324.9999999943
0.2990490490490486 	299.9999999999624 	9.30170546943714e-13 	101324.9999999943
0.3015515515515511 	300.0000000000197 	4.172229480249394e-12 	101324.9999999944
0.3040540540540535 	299.999999999993 	1.337889709772668e-12 	101324.9999999941
0.3065565565565562 	299.9999999999969 	4.268827549207625e-12 	101324.9999999942
0.3090590590590585 	299.9999999999924 	1.565574003478068e-12 	101324.9999999938
0.3115615615615611 	299.9999999999638 	3.072378130639833e-12 	101324.9999999939
0.3140640640640635 	300.0000000000018 	7.565649607652561e-13 	101324.9999999937
0.316566566566566 	299.9999999999946 	2.482673771057505e-12 	101324.9999999937
0.3190690690690687 	299.9999999999711 	1.347313446463534e-12 	101324.999999994
0.3215715715715711 	300.0000000000047 	2.797143936624756e-12 	101324.9999999943
0.3240740740740735 	299.9999999999936 	1.238050248500887e-12 	101324.9999999944
0.326576576576576 	299.9999999999323 	2.186516682162441e-12 	101324.9999999942
0.3290790790790786 	300.0000000000028 	1.092557100213071e-12 	101324.9999999942
0.3315815815815811 	300.000000000028 	1.188174165306411e-12 	101324.9999999941
0.3340840840840836 	299.9999999999917 	7.095737513360129e-13 	101324.999999994
0.3365865865865861 	300.0000000000366 	1.49039612309847e-12 	101324.9999999943
0.3390890890890886 	300.0000000000293 	4.553499334228658e-13 	101324.9999999943
0.3415915915915911 	299.9999999999974 	8.166376921350917e-13 	101324.9999999943
0.3440940940940935 	299.999999999972 	6.605880445182228e-13 	101324.9999999943
0.3465965965965962 	300.0000000000263 	1.076615427453027e-12 	101324.9999999943
0.3490990990990985 	300.0000000000194 	4.38389654860779e-13 	101324.9999999943
0.3516016016016011 	299.9999999999924 	8.469724911948606e-13 	101324.9999999945
0.3541041041041035 	300.000000000003 	1.035554934175865e-12 	101324.9999999945
0.3566066066066061 	299.9999999999772 	1.097025318350205e-12 	101324.9999999947
0.3591091091091085 	299.9999999999532 	2.221219639112048e-12 	101324.9999999948
0.3616116116116112 	299.9999999999644 	1.127769205022002e-12 	101324.9999999948
0.3641141141141137 	299.9999999999578 	2.471230915743362e-12 	101324.9999999947
0.3666166166166161 	299.9999999999498 	1.145918623972889e-12 	101324.9999999945
0.3691191191191185 	300.0000000000178 	3.000883568136111e-12 	101324.9999999946
0.371621621621621 	300.000000000009 	1.027377502763469e-12 	101324.9999999947
0.3741241241241237 	300.0000000000269 	2.071807534433531e-12 	101324.9999999949
0.3766266266266261 	300.000000000016 	6.209760585581304e-13 	101324.9999999949
0.3791291291291286 	299.9999999999941 	1.779665230416671e-12 	101324.9999999945
0.3816316316316311 	299.9999999999487 	1.293009055957058e-12 	101324.9999999943
0.3841341341341336 	300.0000000000062 	2.189703352635933e-12 	101324.9999999943
0.3866366366366362 	299.9999999999985 	6.372572216926103e-13 	101324.9999999941
0.3891391391391387 	299.9999999999739 	1.213549896438688e-12 	101324.9999999942
0.391641641641641 	299.9999999999937 	9.043009845256593e-13 	101324.9999999943
0.3941441441441436 	300.000000000004 	1.531561535887475e-12 	101324.9999999946
0.3966466466466462 	299.9999999999995 	1.018406814801472e-12 	101324.9999999948
0.3991491491491486 	299.999999999967 	1.470633493542633e-12 	101324.9999999947
0.4016516516516512 	299.9999999999484 	6.149797008380397e-13 	101324.9999999948
0.4041541541541536 	299.9999999999752 	1.640775261613918e-12 	101324.9999999952
0.4066566566566561 	299.9999999999705 	9.928528251831754e-13 	101324.9999999952
0.4091591591591587 	299.999999999993 	8.623325215548951e-13 	101324.9999999951
0.4116616616616612 	299.9999999999952 	9.334804327099926e-13 	101324.9999999948
0.4141641641641635 	300.0000000000241 	3.447218910457567e-13 	101324.9999999949
0.4166666666666662 	299.9999999999995 	1.023610047643739e-12 	101324.999999995
0.4191691691691687 	299.9999999999661 	1.519306552006672e-12 	101324.9999999947
0.421671671671671 	300.0000000000046 	9.87205028877318e-13 	101324.9999999945
0.4241741741741737 	299.9999999999872 	2.656805750658412e-12 	101324.9999999945
0.4266766766766761 	299.9999999999666 	1.631692105402394e-12 	101324.9999999945
0.4291791791791785 	300.0000000000128 	3.174450729927842e-12 	101324.9999999946
0.4316816816816812 	300.0000000000062 	1.782628848627891e-12 	101324.9999999947
0.4341841841841836 	299.9999999999902 	3.412472749610525e-12 	101324.9999999947
0.4366866866866862 	299.9999999999504 	7.898835136118502e-13 	101324.9999999947
0.4391891891891885 	299.9999999999959 	1.891575508527948e-12 	101324.9999999945
0.4416916916916913 	299.9999999999912 	6.601974009827607e-13 	101324.9999999945
0.4441941941941936 	299.9999999999936 	1.138618806789543e-12 	101324.9999999944
0.4466966966966961 	299.999999999951 	2.295178288440082e-13 	101324.9999999942
0.4491991991991987 	299.9999999999868 	1.163566546511438e-13 	101324.9999999942
0.4517017017017012 	299.9999999999874 	2.736282659881763e-13 	101324.999999994
0.4542042042042035 	299.9999999999953 	4.339861533096549e-13 	101324.9999999942
0.4567067067067062 	299.9999999999959 	1.208136176762419e-12 	101324.9999999941
0.4592092092092087 	299.9999999999545 	1.317052362268627e-12 	101324.9999999942
0.4617117117117112 	300.0000000000119 	2.025149590556437e-12 	101324.9999999943
0.4642142142142137 	299.9999999999746 	2.236090177953488e-12 	101324.9999999944
0.4667167167167162 	299.9999999999938 	2.181783050504344e-12 	101324.9999999945
0.4692192192192187 	299.9999999999751 	1.827495358739544e-12 	101324.9999999946
0.4717217217217212 	300.0000000000088 	1.254603424267989e-12 	101324.9999999944
0.4742242242242236 	299.9999999999733 	1.148020580413865e-12 	101324.9999999946
0.4767267267267262 	299.9999999999848 	9.026447501637567e-13 	101324.9999999947
0.4792292292292287 	300.0000000000106 	1.259612077201138e-12 	101324.9999999946
0.4817317317317312 	300.0000000000185 	1.532008931274847e-12 	101324.9999999943
0.4842342342342336 	299.9999999999926 	1.703994480274802e-12 	101324.9999999945
0.4867367367367362 	299.9999999999749 	2.420480063628786e-12 	101324.9999999946
0.4892392392392387 	300.0000000000187 	2.206000599807451e-12 	101324.9999999946
0.4917417417417412 	300.0000000000049 	3.88572621886715e-12 	101324.9999999944
0.4942442442442437 	299.9999999999491 	2.768363574686034e-12 	101324.9999999943
0.4967467467467462 	299.9999999999584 	3.819224621322183e-12 	101324.9999999942
0.4992492492492487 	299.9999999999498 	1.59371081932825e-12 	101324.9999999941
0.5017517517517511 	299.9999999999735 	3.098770700877408e-12 	101324.9999999942
0.5042542542542537 	299.9999999999814 	2.813153007806771e-12 	101324.9999999944
0.5067567567567562 	299.9999999999673 	3.706145281092045e-12 	101324.9999999943
0.5092592592592589 	299.9999999999791 	3.819371867852119e-12 	101324.9999999945
0.5117617617617611 	299.9999999999761 	3.556453864876082e-12 	101324.9999999943
0.5142642642642637 	299.9999999999916 	4.601886041704791e-12 	101324.9999999942
0.5167667667667663 	299.9999999999826 	2.643980353377052e-12 	101324.9999999944
0.5192692692692688 	299.9999999999507 	4.8661151946566e-12 	101324.9999999947
0.5217717717717714 	299.9999999999656 	1.761875404144501e-12 	101324.9999999949
0.5242742742742736 	299.9999999999646 	3.866730103548742e-12 	101324.999999995
0.5267767767767763 	299.9999999999759 	1.159999553079519e-12 	101324.9999999951
0.5292792792792789 	299.999999999965 	3.526380375657168e-12 	101324.9999999949
0.5317817817817813 	299.9999999999451 	1.418206151853728e-12 	101324.9999999949
0.5342842842842837 	300.0000000000102 	2.621735682649482e-12 	101324.999999995
0.5367867867867864 	300.0000000000011 	2.188031261382532e-12 	101324.9999999951
0.5392892892892888 	299.9999999999757 	2.637818345756984e-12 	101324.9999999951
0.5417917917917912 	300.0000000000044 	1.625799903032942e-12 	101324.9999999953
0.5442942942942938 	299.9999999999926 	1.787335092479958e-12 	101324.9999999951
0.5467967967967964 	299.9999999999748 	1.471060852078694e-12 	101324.9999999951
0.5492992992992988 	299.9999999999679 	2.324463793781056e-12 	101324.9999999949
0.5518018018018012 	299.9999999999672 	2.106998094868757e-12 	101324.9999999949
0.5543043043043039 	300.0000000000103 	2.764736486470851e-12 	101324.9999999951
0.5568068068068063 	299.9999999999947 	2.479317267516383e-12 	101324.9999999951
0.5593093093093087 	299.9999999999492 	3.064515910259048e-12 	101324.999999995
0.5618118118118114 	299.9999999999786 	1.351563168803649e-12 	101324.9999999949
0.5643143143143137 	299.9999999999716 	2.471665992982317e-12 	101324.999999995
0.5668168168168163 	299.9999999999966 	1.75096792994954e-12 	101324.9999999951
0.5693193193193188 	300.000000000023 	2.450285493462882e-12 	101324.9999999951
0.5718218218218213 	300.0000000000189 	2.996474067220406e-12 	101324.9999999952
0.5743243243243239 	300.0000000000081 	2.979211345677992e-12 	101324.9999999952
0.5768268268268262 	300.0000000000029 	4.540231149044074e-12 	101324.9999999955
0.5793293293293288 	299.9999999999659 	3.50238701384136e-12 	101324.9999999953
0.5818318318318314 	299.9999999999534 	5.88628145486959e-12 	101324.9999999952
0.5843343343343338 	299.9999999999898 	2.542773988305777e-12 	101324.9999999952
0.5868368368368363 	299.9999999999865 	5.031958026260399e-12 	101324.9999999953
0.5893393393393387 	299.9999999999683 	2.715857418885097e-12 	101324.9999999952
0.5918418418418413 	299.9999999999645 	4.269696652946407e-12 	101324.999999995
0.5943443443443439 	300.0000000000091 	2.372218849307987e-12 	101324.9999999948
0.5968468468468463 	300.0000000000086 	3.381855942717193e-12 	101324.9999999949
0.5993493493493487 	300.00000000002 	3.159905092996532e-12 	101324.9999999949
0.6018518518518514 	299.9999999999883 	3.841963243501866e-12 	101324.9999999949
0.6043543543543537 	299.9999999999981 	3.581680355909427e-12 	101324.9999999948
0.6068568568568564 	299.99999999999 	3.916655658335868e-12 	101324.9999999949
0.6093593593593587 	299.9999999999606 	3.195163051760138e-12 	101324.9999999948
0.6118618618618614 	299.9999999999566 	2.840962051428132e-12 	101324.9999999946
0.6143643643643638 	300.0000000000117 	2.497023092541902e-12 	101324.9999999945
0.6168668668668662 	299.9999999999963 	3.248444243653667e-12 	101324.9999999948
0.6193693693693688 	299.999999999975 	2.153070669212651e-12 	101324.9999999949
0.6218718718718714 	299.9999999999772 	3.296666134845854e-12 	101324.999999995
0.6243743743743737 	299.9999999999606 	1.33478477220971e-12 	101324.9999999952
0.6268768768768762 	299.9999999999559 	2.53082173898842e-12 	101324.9999999953
0.629379379379379 	299.999999999971 	1.106044496390343e-12 	101324.9999999951
0.6318818818818812 	299.9999999999816 	2.166396273694327e-12 	101324.999999995
0.6343843843843838 	300.0000000000093 	2.670068303925058e-12 	101324.9999999947
0.6368868868868864 	299.9999999999887 	3.487178442119985e-12 	101324.9999999944
0.6393893893893888 	299.9999999999521 	4.305085987791815e-12 	101324.9999999942
0.6418918918918912 	300.0000000000013 	3.050626208054726e-12 	101324.9999999944
0.6443943943943939 	299.9999999999869 	5.472081378225791e-12 	101324.9999999946
0.6468968968968963 	299.9999999999886 	2.550949908540955e-12 	101324.9999999945
0.6493993993993988 	299.9999999999835 	5.487779123289997e-12 	101324.9999999947
0.6519019019019012 	299.999999999984 	3.061973203885452e-12 	101324.9999999949
0.6544044044044038 	299.9999999999418 	4.677319728475918e-12 	101324.999999995
0.6569069069069065 	299.9999999999719 	2.292786950015545e-12 	101324.9999999951
0.6594094094094087 	299.9999999999756 	3.468836845750402e-12 	101324.9999999951
0.6619119119119113 	299.999999999971 	2.171395212878464e-12 	101324.999999995
0.664414414414414 	299.9999999999987 	2.86637124042212e-12 	101324.999999995
0.6669169169169162 	300.0000000000126 	1.948089696573019e-12 	101324.9999999951
0.6694194194194188 	299.9999999999932 	2.60607764325347e-12 	101324.999999995
0.6719219219219214 	299.9999999999566 	2.019933172192891e-12 	101324.9999999949
0.674424424424424 	299.999999999986 	2.497055304402411e-12 	101324.9999999948
0.6769269269269262 	299.9999999999526 	2.132646939031989e-12 	101324.9999999948
0.679429429429429 	300.0000000000025 	2.272730212614276e-12 	101324.999999995
0.6819319319319311 	299.9999999999842 	1.729265892879699e-12 	101324.9999999948
0.6844344344344341 	299.9999999999955 	2.153961335663197e-12 	101324.9999999947
0.686936936936936 	299.9999999999935 	1.302411424730443e-12 	101324.9999999946
0.6894394394394392 	299.9999999999911 	1.861933673642385e-12 	101324.9999999945
0.6919419419419413 	299.9999999999892 	1.874016799305561e-12 	101324.9999999945
0.694444444444444 	299.999999999962 	1.717779407255058e-12 	101324.9999999943
0.6969469469469463 	299.9999999999574 	1.548000694769984e-12 	101324.9999999942
0.6994494494494489 	299.999999999953 	6.607336735380714e-13 	101324.9999999942
0.7019519519519515 	299.9999999999896 	1.433294920598119e-12 	101324.9999999944
0.7044544544544538 	299.9999999999716 	1.170739633976627e-12 	101324.9999999943
0.7069569569569564 	299.9999999999974 	2.490666160724418e-12 	101324.9999999942
0.7094594594594589 	299.9999999999782 	1.189517060550519e-12 	101324.9999999944
0.7119619619619615 	299.9999999999446 	2.584424802430322e-12 	101324.9999999944
0.7144644644644638 	299.9999999999675 	1.291920540497857e-12 	101324.9999999945
0.7169669669669665 	299.9999999999516 	1.867391188929316e-12 	101324.9999999945
0.7194694694694688 	299.9999999999952 	1.219460843110555e-12 	101324.9999999948
0.7219719719719715 	299.9999999999943 	1.969237277300005e-12 	101324.9999999949
0.7244744744744737 	300.0000000000004 	1.893547640042787e-12 	101324.9999999948
0.7269769769769764 	299.9999999999947 	2.309027960863511e-12 	101324.9999999949
0.7294794794794791 	299.9999999999895 	3.344838836539733e-12 	101324.9999999948
0.7319819819819813 	299.9999999999872 	1.947249019701836e-12 	101324.9999999946
0.7344844844844839 	299.9999999999535 	2.716282988219404e-12 	101324.9999999948
0.7369869869869864 	299.9999999999741 	1.924367706462887e-12 	101324.9999999952
0.739489489489489 	299.9999999999657 	2.968749970915726e-12 	101324.9999999951
0.7419919919919914 	299.999999999957 	3.319209223985338e-12 	101324.999999995
0.7444944944944939 	299.9999999999833 	3.098465793223004e-12 	101324.9999999948
0.7469969969969963 	299.9999999999836 	4.12665623900302e-12 	101324.9999999945
0.7494994994994989 	299.9999999999633 	1.953487137663279e-12 	101324.9999999942
0.7520020020020015 	299.9999999999783 	3.329394128144003e-12 	101324.9999999941
0.7545045045045039 	299.9999999999807 	1.12591215566678e-12 	101324.9999999941
0.7570070070070062 	299.999999999968 	1.821039658589248e-12 	101324.999999994
0.7595095095095092 	299.9999999999587 	5.690300575888299e-13 	101324.9999999939
0.7620120120120112 	300.0000000000002 	1.075402603033085e-12 	101324.999999994
0.7645145145145138 	299.9999999999912 	1.091279842496393e-12 	101324.999999994
0.7670170170170165 	299.9999999999598 	8.665977719268102e-13 	101324.999999994
0.7695195195195191 	299.9999999999526 	1.649778853090292e-12 	101324.9999999941
0.7720220220220213 	299.9999999999587 	1.466807013807383e-12 	101324.9999999943
0.7745245245245239 	299.9999999999621 	1.351577943754504e-12 	101324.9999999942
0.7770270270270263 	299.9999999999831 	1.037380387063492e-12 	101324.9999999941
0.779529529529529 	299.9999999999894 	3.804366952250219e-13 	101324.9999999943
0.7820320320320313 	299.9999999999819 	6.814783500672463e-13 	101324.9999999944
0.784534534534534 	299.9999999999964 	9.609553168992e-13 	101324.9999999942
0.7870370370370364 	299.9999999999928 	1.039392676146732e-12 	101324.999999994
0.7895395395395389 	299.9999999999848 	1.7393326927611e-12 	101324.9999999939
0.7920420420420413 	299.9999999999893 	1.43591232438e-12 	101324.9999999939
0.794544544544544 	299.9999999999944 	2.437558987047569e-12 	101324.9999999941
0.7970470470470463 	300.0000000000036 	2.128624470128097e-12 	101324.9999999942
0.799549549549549 	299.9999999999865 	2.506023470324629e-12 	101324.9999999943
0.8020520520520515 	299.9999999999914 	1.170854135565057e-12 	101324.9999999942
0.8045545545545539 	299.9999999999669 	1.210416927588489e-12 	101324.9999999942
0.8070570570570563 	299.9999999999922 	4.117627847193335e-14 	101324.9999999943
0.8095595595595589 	299.9999999999759 	2.223792202281337e-13 	101324.9999999945
0.8120620620620614 	299.9999999999583 	5.434478529383108e-13 	101324.9999999946
0.8145645645645638 	299.9999999999928 	1.017239174294797e-12 	101324.9999999946
0.8170670670670666 	299.9999999999899 	1.834247870933919e-12 	101324.9999999947
0.8195695695695689 	299.9999999999818 	1.639573931875517e-12 	101324.9999999946
0.8220720720720714 	299.9999999999671 	3.342318694307461e-12 	101324.9999999945
0.8245745745745739 	300.0000000000013 	1.747454298901638e-12 	101324.9999999945
0.8270770770770765 	299.9999999999853 	2.714587581196617e-12 	101324.9999999944
0.8295795795795788 	299.999999999968 	2.436639652187803e-12 	101324.9999999943
0.8320820820820815 	300.0000000000089 	2.976811337333013e-12 	101324.9999999942
0.834584584584584 	300.0000000000036 	2.117911264913087e-12 	101324.9999999942
0.8370870870870865 	299.9999999999794 	1.991542147292678e-12 	101324.9999999946
0.8395895895895891 	299.9999999999519 	2.623200153300963e-12 	101324.999999995
0.8420920920920915 	299.9999999999585 	2.331495103965421e-12 	101324.9999999951
0.844594594594594 	299.9999999999577 	2.572183178687177e-12 	101324.9999999951
0.8470970970970964 	299.9999999999663 	2.711521487560757e-12 	101324.9999999949
0.8495995995995991 	299.9999999999905 	2.725071501183199e-12 	101324.9999999948
0.8521021021021015 	299.9999999999879 	3.310068619351474e-12 	101324.9999999949
0.8546046046046039 	299.9999999999897 	3.183084056146737e-12 	101324.9999999951
0.8571071071071066 	299.9999999999975 	3.609717496270253e-12 	101324.9999999951
0.8596096096096089 	299.9999999999703 	2.255007639960833e-12 	101324.9999999949
0.8621121121121116 	299.999999999954 	4.139510514220074e-12 	101324.9999999949
0.8646146146146139 	299.9999999999911 	2.435122292853002e-12 	101324.9999999948
0.8671171171171166 	299.9999999999849 	3.587288906353764e-12 	101324.9999999947
0.8696196196196189 	299.9999999999729 	2.972690065886308e-12 	101324.9999999947
0.8721221221221216 	299.9999999999794 	3.272599664906641e-12 	101324.9999999945
0.874624624624624 	300.0000000000001 	3.397232873487874e-12 	101324.9999999942
0.8771271271271264 	300.0000000000043 	3.893558612873242e-12 	101324.9999999943
0.879629629629629 	300.0000000000026 	4.94415015132622e-12 	101324.9999999943
0.8821321321321317 	299.9999999999873 	4.027515802432238e-12 	101324.9999999945
0.8846346346346339 	299.999999999951 	5.319341628286771e-12 	101324.9999999947
0.8871371371371364 	299.999999999972 	3.603695572802196e-12 	101324.9999999948
0.8896396396396391 	299.9999999999775 	4.670345378398329e-12 	101324.999999995
0.8921421421421414 	299.9999999999825 	3.832758085427504e-12 	101324.9999999952
0.8946446446446441 	299.9999999999934 	4.742070758645274e-12 	101324.9999999955
0.8971471471471464 	300.0000000000031 	4.796717387226985e-12 	101324.9999999957
0.8996496496496489 	299.9999999999829 	4.63146077182358e-12 	101324.9999999958
0.9021521521521517 	299.9999999999758 	5.079075127518597e-12 	101324.9999999958
0.9046546546546541 	299.9999999999952 	4.247380949659906e-12 	101324.9999999957
0.9071571571571564 	299.9999999999692 	4.742783327410134e-12 	101324.9999999959
0.9096596596596589 	299.9999999999665 	4.942989448250162e-12 	101324.9999999959
0.9121621621621616 	300.0000000000011 	5.294066408177616e-12 	101324.9999999958
0.9146646646646639 	299.9999999999879 	4.979544308283468e-12 	101324.9999999959
0.9171671671671666 	299.9999999999669 	4.700840106486267e-12 	101324.9999999959
0.9196696696696689 	299.999999999998 	5.125760528766442e-12 	101324.9999999957
0.9221721721721714 	300.0000000000016 	3.721345777153187e-12 	101324.9999999957
0.9246746746746741 	299.999999999967 	4.89282331724127e-12 	101324.9999999956
0.9271771771771765 	299.9999999999706 	3.42926921380529e-12 	101324.9999999954
0.9296796796796791 	299.999999999995 	4.849335432014269e-12 	101324.9999999951
0.9321821821821816 	299.9999999999778 	4.338663607517774e-12 	101324.9999999951
0.9346846846846838 	299.9999999999678 	5.525149865240429e-12 	101324.9999999952
0.9371871871871866 	300.0000000000067 	5.569913461028049e-12 	101324.9999999954
0.9396896896896891 	300.000000000008 	5.546359499130358e-12 	101324.9999999955
0.9421921921921914 	300.0000000000053 	5.449424068171176e-12 	101324.9999999956
0.9446946946946939 	299.9999999999782 	4.549242714269136e-12 	101324.9999999959
0.9471971971971965 	299.9999999999527 	6.389473223254202e-12 	101324.9999999961
0.9496996996996991 	299.9999999999764 	5.458644057560337e-12 	101324.9999999962
0.9522022022022016 	299.9999999999846 	6.569972041770118e-12 	101324.9999999962
0.9547047047047038 	299.9999999999852 	5.833866543476505e-12 	101324.9999999963
0.9572072072072064 	299.9999999999806 	6.106592013169673e-12 	101324.9999999963
0.9597097097097093 	299.9999999999793 	5.627823191739163e-12 	101324.999999996
0.9622122122122114 	299.9999999999721 	5.571752304796008e-12 	101324.999999996
0.964714714714714 	299.9999999999728 	6.221766251504306e-12 	101324.999999996
0.9672172172172167 	299.999999999977 	5.375364117418852e-12 	101324.9999999959
0.969719719719719 	299.9999999999895 	5.547465036024654e-12 	101324.999999996
0.9722222222222214 	299.9999999999851 	5.277610217076269e-12 	101324.9999999962
0.9747247247247239 	299.9999999999829 	5.905872357290242e-12 	101324.9999999962
0.9772272272272267 	300.0000000000004 	5.942929802412326e-12 	101324.9999999963
0.9797297297297292 	299.9999999999908 	5.717798266995505e-12 	101324.9999999962
0.9822322322322313 	299.9999999999943 	6.125506084393953e-12 	101324.9999999962
0.9847347347347344 	299.9999999999943 	5.12240290415228e-12 	101324.9999999962
0.9872372372372363 	299.9999999999714 	6.773615910500578e-12 	101324.9999999961
0.9897397397397389 	299.9999999999834 	5.293703546695522e-12 	101324.9999999961
0.9922422422422417 	299.9999999999727 	6.664201799344603e-12 	101324.9999999964
0.9947447447447441 	299.9999999999724 	6.352340462276439e-12 	101324.9999999968
0.9972472472472468 	299.9999999999815 	7.339768287370829e-12 	101324.999999997
0.999749749749749 	299.9999999999797 	7.156274580320191e-12 	101324.9999999971
1.002252252252252 	299.9999999999806 	7.643379051446701e-12 	101324.999999997
1.004754754754754 	299.999999999991 	7.634887071500556e-12 	101324.9999999969
1.007257257257256 	299.9999999999794 	7.280806175614917e-12 	101324.999999997
1.009759759759759 	299.99999999997 	8.857741914266542e-12 	101324.999999997
1.012262262262261 	299.9999999999686 	7.91472709714198e-12 	101324.9999999968
1.014764764764764 	299.9999999999575 	9.605259938363513e-12 	101324.9999999966
1.017267267267267 	299.9999999999556 	9.077999580118631e-12 	101324.9999999965
1.019769769769769 	299.9999999999812 	9.108997430286744e-12 	101324.9999999967
1.022272272272272 	299.9999999999893 	8.423641454815146e-12 	101324.9999999969
1.024774774774774 	299.9999999999853 	8.560214971378848e-12 	101324.9999999969
1.027277277277277 	299.9999999999791 	9.228670454157854e-12 	101324.9999999968
1.029779779779779 	299.9999999999949 	8.352082900526981e-12 	101324.9999999967
1.032282282282282 	299.9999999999972 	8.659630820879867e-12 	101324.9999999967
1.034784784784784 	299.9999999999957 	7.893224443667873e-12 	101324.9999999968
1.037287287287286 	299.9999999999814 	8.088170672001088e-12 	101324.9999999969
1.039789789789789 	299.9999999999836 	8.12052319377896e-12 	101324.999999997
1.042292292292291 	300.0000000000024 	8.087161603347858e-12 	101324.999999997
1.044794794794794 	300.0000000000109 	7.209155552784914e-12 	101324.9999999969
1.047297297297296 	300.0000000000221 	5.810325953933646e-12 	101324.9999999967
1.049799799799799 	299.9999999999948 	7.255690988886628e-12 	101324.9999999967
1.052302302302302 	299.9999999999749 	6.756928052653762e-12 	101324.9999999966
1.054804804804804 	299.9999999999635 	8.814227209243691e-12 	101324.9999999964
1.057307307307306 	299.9999999999537 	8.620377551819725e-12 	101324.9999999965
1.059809809809809 	299.9999999999724 	9.244765690125027e-12 	101324.9999999969
1.062312312312312 	299.9999999999687 	8.513833547922781e-12 	101324.9999999971
1.064814814814814 	299.9999999999683 	8.784486373815316e-12 	101324.9999999969
1.067317317317317 	299.9999999999585 	8.915270744048441e-12 	101324.9999999968
1.069819819819819 	299.9999999999555 	8.946639509061781e-12 	101324.999999997
1.072322322322321 	299.9999999999945 	9.87031692952234e-12 	101324.9999999973
1.074824824824824 	300.0000000000147 	8.382484795273394e-12 	101324.9999999973
1.077327327327327 	300.0000000000221 	9.636197476685466e-12 	101324.9999999973
1.079829829829829 	300.0000000000211 	8.687620173969945e-12 	101324.9999999974
1.082332332332332 	300.0000000000028 	9.341845840420652e-12 	101324.9999999977
1.084834834834834 	299.9999999999894 	8.9903772592315e-12 	101324.9999999977
1.087337337337337 	299.999999999966 	8.523341622455096e-12 	101324.9999999977
1.089839839839839 	299.9999999999601 	9.010682818163716e-12 	101324.9999999974
1.092342342342342 	299.9999999999856 	7.911671881411582e-12 	101324.9999999974
1.094844844844844 	299.9999999999877 	8.851773027714697e-12 	101324.9999999977
1.097347347347347 	299.9999999999688 	8.073172510006915e-12 	101324.999999998
1.099849849849849 	299.9999999999568 	1.027545230714482e-11 	101324.9999999981
1.102352352352352 	299.9999999999698 	9.390794184899772e-12 	101324.9999999981
1.104854854854854 	299.9999999999856 	1.100880138129938e-11 	101324.9999999981
1.107357357357357 	299.9999999999816 	9.618186276246277e-12 	101324.9999999981
1.109859859859859 	299.9999999999725 	1.058313091548638e-11 	101324.9999999982
1.112362362362362 	300.0000000000061 	9.974331380113601e-12 	101324.9999999983
1.114864864864865 	300.000000000006 	1.014556698975813e-11 	101324.9999999983
1.117367367367367 	299.9999999999786 	1.098168053074089e-11 	101324.9999999983
1.119869869869869 	299.9999999999607 	9.645584781980595e-12 	101324.9999999984
1.122372372372372 	299.9999999999812 	1.045309690380774e-11 	101324.9999999983
1.124874874874874 	299.9999999999812 	9.496309398175351e-12 	101324.9999999981
1.127377377377377 	299.999999999986 	1.045500974660817e-11 	101324.9999999982
1.129879879879879 	300.0000000000126 	9.986062846450223e-12 	101324.9999999983
1.132382382382382 	300.0000000000199 	1.053689704696292e-11 	101324.9999999982
1.134884884884884 	300.0000000000023 	1.027207461685545e-11 	101324.9999999983
1.137387387387387 	300.0000000000061 	1.023981566208185e-11 	101324.9999999983
1.139889889889889 	299.999999999978 	1.097235479344848e-11 	101324.9999999981
1.142392392392392 	299.9999999999759 	1.002985100382278e-11 	101324.9999999983
1.144894894894894 	300.0000000000113 	1.099609189101232e-11 	101324.9999999985
1.147397397397397 	300.0000000000003 	9.839476085692379e-12 	101324.9999999986
1.149899899899899 	299.9999999999662 	1.037715595086581e-11 	101324.9999999985
1.152402402402402 	299.9999999999571 	1.027214745483012e-11 	101324.9999999987
1.154904904904904 	299.9999999999779 	1.105399511514292e-11 	101324.9999999988
1.157407407407407 	299.9999999999812 	1.032015134593097e-11 	101324.9999999987
1.159909909909909 	299.9999999999665 	1.062356329092973e-11 	101324.9999999987
1.162412412412412 	299.999999999962 	1.254827772650332e-11 	101324.9999999985
1.164914914914914 	299.9999999999801 	1.193721707749175e-11 	101324.9999999983
1.167417417417417 	299.9999999999765 	1.33229638425281e-11 	101324.9999999983
1.169919919919919 	300.0000000000019 	1.24089405596011e-11 	101324.9999999985
1.172422422422422 	300.0000000000227 	1.276908327928184e-11 	101324.9999999988
1.174924924924925 	299.9999999999919 	1.163984200443019e-11 	101324.9999999988
1.177427427427427 	299.9999999999781 	1.183134590891533e-11 	101324.9999999988
1.179929929929929 	300.0000000000085 	1.217090821079897e-11 	101324.9999999989
1.182432432432432 	300.0000000000255 	1.051482130545007e-11 	101324.9999999989
1.184934934934934 	300.0000000000097 	1.065912761399683e-11 	101324.9999999989
1.187437437437437 	299.9999999999945 	9.763901265861171e-12 	101324.999999999
1.189939939939939 	299.9999999999873 	1.080593572943476e-11 	101324.9999999989
1.192442442442442 	299.9999999999656 	1.028694389128867e-11 	101324.9999999989
1.194944944944944 	299.9999999999654 	1.097054956352813e-11 	101324.9999999988
1.197447447447447 	299.9999999999966 	1.014712153978773e-11 	101324.9999999987
1.199949949949949 	300.000000000004 	1.053427640733199e-11 	101324.9999999987
1.202452452452452 	299.9999999999745 	1.179110155753908e-11 	101324.9999999988
1.204954954954955 	299.9999999999719 	1.131359466855746e-11 	101324.999999999
1.207457457457457 	299.9999999999884 	1.262134352872817e-11 	101324.9999999991
1.20995995995996 	299.9999999999865 	1.172042866950945e-11 	101324.9999999992
1.212462462462462 	299.9999999999941 	1.201439966889961e-11 	101324.9999999992
1.214964964964964 	299.9999999999939 	1.128334457693157e-11 	101324.9999999992
1.217467467467467 	299.9999999999915 	1.218705858481919e-11 	101324.9999999994
1.219969969969969 	299.9999999999828 	1.156580708755584e-11 	101324.9999999996
1.222472472472472 	300.0000000000115 	1.194025883959934e-11 	101325
1.224974974974975 	300.0000000000299 	1.211377182743091e-11 	101325.0000000001
1.227477477477477 	299.9999999999982 	1.045226785149296e-11 	101324.9999999999
1.229979979979979 	299.999999999987 	1.145426539133167e-11 	101324.9999999999
1.232482482482482 	299.9999999999739 	1.054951034333e-11 	101324.9999999999
1.234984984984984 	299.9999999999754 	1.183444991856179e-11 	101325
1.237487487487487 	299.9999999999889 	1.104848848386623e-11 	101325.0000000001
1.239989989989989 	299.9999999999894 	1.182275230273237e-11 	101325
1.242492492492492 	300.0000000000057 	1.221085820165448e-11 	101324.9999999999
1.244994994994994 	299.9999999999911 	1.081864473638782e-11 	101324.9999999999
1.247497497497497 	299.9999999999919 	1.205020552811994e-11 	101324.9999999999
1.249999999999999 	300 	1.176067963790438e-11 	101324.9999999999
