-1.25 	300.0395459526339 	1.118167975690423 	101372.5528258148
-1.247497497497497 	300.0383718273841 	1.11270745153185 	101370.4180193431
-1.244994994994995 	300.035575774652 	1.10267205312157 	101367.0387545999
-1.242492492492492 	300.0320426095384 	1.092609187177306 	101362.8864356644
-1.23998998998999 	300.02794395157 	1.080799989173034 	101358.0389435924
-1.237487487487487 	300.0233324313905 	1.067463765371941 	101352.5862967915
-1.234984984984985 	300.0182928161583 	1.052897884249343 	101346.62752715
-1.232482482482482 	300.0129169941629 	1.037360347225619 	101340.2715951202
-1.22997997997998 	300.0073033860173 	1.021135107901691 	101333.6348608412
-1.227477477477477 	300.0015546152308 	1.004519344990347 	101326.8385857247
-1.224974974974975 	299.9957765495242 	0.9878184755577029 	101320.0078818657
-1.222472472472472 	299.9900752476962 	0.9713391660800985 	101313.2682017782
-1.21996996996997 	299.9845549808497 	0.9553834939215681 	101306.7428024723
-1.217467467467467 	299.9793175996932 	0.9402456001575071 	101300.5520386929
-1.214964964964965 	299.9744600074042 	0.9262053705326425 	101294.8104457066
-1.212462462462462 	299.9700715119544 	0.9135210666214161 	101289.6234984012
-1.20995995995996 	299.9662324050284 	0.9024252800161131 	101285.0860677615
-1.207457457457457 	299.9630135818799 	0.8931226778815593 	101281.2818183932
-1.204954954954955 	299.9604747226163 	0.8857853923026338 	101278.2812566918
-1.202452452452452 	299.9586621971054 	0.8805476632093452 	101276.1391678439
-1.19994994994995 	299.9576085844966 	0.8775037360549918 	101274.893980126
-1.197447447447447 	299.9573321733386 	0.8767075871964877 	101274.567606183
-1.194944944944945 	299.9578383315535 	0.8781730435112336 	101275.1658766506
-1.192442442442442 	299.9591181092361 	0.8818726433595285 	101276.6778465421
-1.18993993993994 	299.9611464673886 	0.8877363542312597 	101279.0746930272
-1.187437437437437 	299.9638851960997 	0.8956539924509174 	101282.3113430039
-1.184934934934935 	299.9672837934315 	0.9054788515861161 	101286.3279258775
-1.182432432432432 	299.9712799081204 	0.9170305432643706 	101291.0508129014
-1.17992992992993 	299.9758004198479 	0.9300974475057124 	101296.3936559982
-1.177427427427427 	299.980762213819 	0.9444397528832643 	101302.2583741459
-1.174924924924925 	299.9860744408515 	0.959794843519288 	101308.5375644898
-1.172422422422422 	299.9916404240096 	0.975882944699523 	101315.1169727609
-1.16991991991992 	299.9973587537628 	0.9924109285066975 	101321.8768118532
-1.167417417417417 	300.0031247370464 	1.009076578967736 	101328.6934066672
-1.164914914914915 	300.0088329400482 	1.025575046510731 	101335.441990232
-1.162412412412412 	300.0143793189206 	1.04160548623632 	101341.9994968643
-1.15990990990991 	300.0196628922716 	1.056876262253461 	101348.2466399274
-1.157407407407407 	300.0245875458502 	1.071109438158564 	101354.0697096261
-1.154904904904904 	300.029063458885 	1.084045155195665 	101359.3623434544
-1.152402402402403 	300.0330084751487 	1.095446229394702 	101364.0273641635
-1.1498998998999 	300.0363501199415 	1.105103544904702 	101367.9790595987
-1.147397397397397 	300.0390274925179 	1.112840906296769 	101371.145304179
-1.144894894894895 	300.0409919720805 	1.118517534974299 	101373.468520944
-1.142392392392392 	300.0422074839227 	1.122029421870223 	101374.9060860745
-1.13988988988989 	300.0426517136484 	1.123310973004641 	101375.4312173511
-1.137387387387387 	300.0423152801023 	1.122335511247954 	101375.0329495213
-1.134884884884885 	300.0412017819278 	1.11911704063976 	101373.7165365616
-1.132382382382382 	300.0393318709872 	1.113712781925831 	101371.5056960355
-1.12987987987988 	300.0367401684251 	1.106220897569769 	101368.4408867327
-1.127377377377377 	300.0334730229234 	1.096776932727356 	101364.5774212344
-1.124874874874875 	300.0295896651807 	1.085552029951168 	101359.9853890268
-1.122372372372372 	300.0251607097163 	1.072750284298804 	101354.7483790973
-1.11986986986987 	300.0202668956758 	1.058605094199787 	101348.9619203642
-1.117367367367367 	300.0149979076371 	1.043375400382179 	101342.7319528168
-1.114864864864865 	300.0094506478758 	1.0273417111153 	101336.1732962098
-1.112362362362362 	300.003727886282 	1.010800930528896 	101329.4075315899
-1.10985985985986 	299.9979357202978 	0.994059668151229 	101322.560145916
-1.107357357357357 	299.9921814183975 	0.9774277117726873 	101315.75780454
-1.104854854854855 	299.9865714626039 	0.961212787033853 	101309.1262814957
-1.102352352352353 	299.981209666191 	0.9457153897602985 	101302.7884445207
-1.09984984984985 	299.9761955508048 	0.9312228238781379 	101296.8617715713
-1.097347347347347 	299.9716218289308 	0.9180033383770891 	101291.4558810586
-1.094844844844845 	299.9675729509143 	0.9063009396444154 	101286.6704733955
-1.092342342342342 	299.9641232989414 	0.8963305785342633 	101282.5934101592
-1.08983983983984 	299.9613356339906 	0.8882738185277912 	101279.298856895
-1.087337337337337 	299.9592601555894 	0.8822755297451547 	101276.8459520037
-1.084834834834835 	299.9579334357653 	0.8784418289191563 	101275.2780231582
-1.082332332332332 	299.9573783595765 	0.8768391704893082 	101274.6221062877
-1.07982982982983 	299.9576040891073 	0.8774945464027459 	101274.8891918651
-1.077327327327327 	299.9586069498711 	0.8803940154180394 	101276.0741376661
-1.074824824824825 	299.9603666860307 	0.885480198682823 	101278.1532791179
-1.072322322322323 	299.9628483685295 	0.8926547048400781 	101281.0861104534
-1.06981981981982 	299.9660060387214 	0.9017831421206376 	101284.81790719
-1.067317317317317 	299.9697817175236 	0.9126976889023536 	101289.2801932707
-1.064814814814815 	299.9741063215961 	0.9251988611227704 	101294.3915244103
-1.062312312312312 	299.97890112431 	0.939058479922062 	101300.0586741953
-1.05980980980981 	299.9840785329566 	0.9540239606397274 	101306.1783970443
-1.057307307307307 	299.9895444912175 	0.9698232930064781 	101312.6395053153
-1.054804804804805 	299.9951999767356 	0.9861699887045789 	101319.3248962494
-1.052302302302302 	300.0009424405324 	1.002767896317118 	101326.1134812605
-1.0497997997998 	300.0066678268171 	1.019316172475743 	101332.8822113401
-1.047297297297297 	300.0122723047808 	1.035514653232415 	101339.5082923435
-1.044794794794795 	300.01765408344 	1.051069361240186 	101345.8714429865
-1.042292292292292 	300.0227154701148 	1.065697696448315 	101351.8560155705
-1.03978978978979 	300.0273643256799 	1.079133424186275 	101357.3530244984
-1.037287287287287 	300.0315158910705 	1.091131767397663 	101362.2622382175
-1.034784784784785 	300.0350945254953 	1.101474136372315 	101366.4941627941
-1.032282282282283 	300.0380350797208 	1.109971777311855 	101369.9715448003
-1.02977977977978 	300.0402833470804 	1.116468492780264 	101372.6304085218
-1.027277277277277 	300.0417975212578 	1.120843234522731 	101374.4211259694
-1.024774774774775 	300.042548807715 	1.123012659790813 	101375.3095821338
-1.022272272272272 	300.0425222503733 	1.122932147531103 	101375.277719144
-1.01976976976977 	300.0417147365568 	1.120596768577216 	101374.3228666412
-1.017267267267267 	300.0401396283366 	1.116044582697269 	101372.4607390265
-1.014764764764765 	300.0378259214093 	1.109356299984315 	101369.7247904746
-1.012262262262262 	300.0348144956971 	1.100651057275955 	101366.1636617608
-1.00975975975976 	300.0311590108168 	1.090084651839513 	101361.8410664221
-1.007257257257257 	300.0269256787603 	1.077848249712309 	101356.8352637003
-1.004754754754755 	300.0221917401612 	1.064165366487311 	101351.2377688527
-1.002252252252252 	300.0170444924847 	1.049287985764351 	101345.1517445266
-0.9997497497497498 	300.011579308645 	1.033491856625473 	101338.6900860604
-0.9972472472472473 	300.0058979057201 	1.017070946591083 	101331.9731462311
-0.9947447447447449 	300.0001064012937 	1.000331520422523 	101325.1262388231
-0.9922422422422421 	299.9943127785266 	0.9835862755756436 	101318.2772473867
-0.9897397397397399 	299.9886255325362 	0.9671484956366038 	101311.5543136296
-0.9872372372372376 	299.9831511863495 	0.9513258321329217 	101305.0832736716
-0.9847347347347346 	299.9779918250371 	0.9364136628174144 	101298.9848969334
-0.9822322322322323 	299.9732433192143 	0.9226887886117383 	101293.372320123
-0.9797297297297296 	299.9689930628962 	0.9104041822016512 	101288.348881183
-0.9772272272272275 	299.9653188519449 	0.8997846180762898 	101284.0063928347
-0.9747247247247248 	299.9622873557269 	0.8910227403036629 	101280.4235776927
-0.9722222222222224 	299.959952836477 	0.8842755147427678 	101277.6645623638
-0.9697197197197196 	299.9583562757184 	0.8796613824749201 	101275.7776884619
-0.9672172172172175 	299.9575246420686 	0.8772586131364699 	101274.7948852994
-0.9647147147147147 	299.9574707658808 	0.8771054604602482 	101274.7315523956
-0.9622122122122124 	299.958195119705 	0.8792003513016653 	101275.5875346634
-0.9597097097097099 	299.9596826622674 	0.8834997240270864 	101277.3450225355
-0.9572072072072073 	299.961903137876 	0.8899186173062078 	101279.9689796818
-0.9547047047047047 	299.9648144517186 	0.8983351008481886 	101283.4096802755
-0.9522022022022023 	299.9683630016864 	0.9085930257883128 	101287.6034471246
-0.9496996996996998 	299.9724834343248 	0.9205041060784797 	101292.4733766219
-0.9471971971971973 	299.9771007664609 	0.9338512915803319 	101297.9307822688
-0.9446946946946947 	299.9821314287474 	0.9483928189141452 	101303.8768812684
-0.9421921921921923 	299.9874845360111 	0.9638664136621937 	101310.204521211
-0.93968968968969 	299.9930638750768 	0.9799934282134107 	101316.7998268856
-0.9371871871871872 	299.9987688882496 	0.9964831725732143 	101323.5439560506
-0.9346846846846848 	300.0044963846758 	1.013037931297835 	101330.3151238306
-0.9321821821821823 	300.010143038743 	1.029358672966577 	101336.9909728651
-0.9296796796796799 	300.0156069028145 	1.045150809547007 	101343.4509857657
-0.9271771771771771 	300.0207893057522 	1.06012944064841 	101349.5786132104
-0.9246746746746748 	300.0255968743632 	1.07402406213264 	101355.2631615866
-0.9221721721721724 	300.0299423567466 	1.086583017954337 	101360.401625196
-0.9196696696696698 	300.0337467519826 	1.097577808230883 	101364.9004551558
-0.9171671671671672 	300.0369405260619 	1.106807110506244 	101368.6771929773
-0.9146646646646649 	300.0394643818939 	1.114100405656761 	101371.6619910297
-0.9121621621621623 	300.0412713599189 	1.11932119537001 	101373.798928436
-0.9096596596596597 	300.0423267842424 	1.12236962856902 	101375.0471036558
-0.9071571571571573 	300.0426096601031 	1.123183773703585 	101375.3813632437
-0.9046546546546547 	300.0421112432159 	1.121739747079733 	101374.7916263303
-0.9021521521521524 	300.0408364531751 	1.118055104076694 	101373.2846323351
-0.8996496496496498 	300.0388079838328 	1.112191584574754 	101370.8861486173
-0.8971471471471473 	300.0360615392375 	1.104251996474425 	101367.6383283887
-0.894644644644645 	300.0326454094806 	1.094377300363057 	101363.5987486351
-0.892142142142142 	300.0286211883492 	1.082745161077698 	101358.8401589233
-0.8896396396396397 	300.0240620858843 	1.069567355971094 	101353.4492417171
-0.8871371371371374 	300.0190518638888 	1.055086323666703 	101347.5252415652
-0.8846346346346349 	300.01368387467 	1.039571178883432 	101341.1783269503
-0.8821321321321324 	300.0080585813413 	1.023312747086065 	101334.5275576361
-0.8796296296296297 	300.0022820929273 	1.006617501947478 	101327.6984047516
-0.8771271271271271 	299.9964637500895 	0.9898008601555659 	101320.819947912
-0.8746246246246248 	299.9907131740738 	0.973180386795461 	101314.0220810254
-0.8721221221221224 	299.985138938188 	0.9570691852879909 	101307.4328638834
-0.8696196196196196 	299.9798455512947 	0.9417695470026085 	101301.1758916852
-0.8671171171171175 	299.974931607362 	0.9275669077262187 	101295.3678273744
-0.8646146146146148 	299.9704883952514 	0.9147242122814936 	101290.1161306109
-0.8621121121121121 	299.9665970162858 	0.9034768368294155 	101285.5169778416
-0.8596096096096097 	299.9633280172546 	0.8940282003266808 	101281.6534533329
-0.857107107107107 	299.9607394633229 	0.8865462613424326 	101278.594154667
-0.8546046046046049 	299.9588761956729 	0.8811610387610269 	101276.3921471957
-0.8521021021021022 	299.9577696647972 	0.877963072154446 	101275.0843632045
-0.8495995995995997 	299.9574368676639 	0.877002873087898 	101274.6912837482
-0.8470970970970974 	299.9578820035186 	0.8782914280364393 	101275.2175615756
-0.8445945945945946 	299.9590954880905 	0.8817985030726614 	101276.6512274616
-0.8420920920920922 	299.9610513229475 	0.8874517662253574 	101278.9622921109
-0.8395895895895897 	299.9637111136512 	0.8951409880093193 	101282.1056676175
-0.8370870870870872 	299.9670254436405 	0.9047220065840399 	101286.0225950282
-0.8345845845845846 	299.9709333250834 	0.9160188969819494 	101290.6412421095
-0.8320820820820823 	299.9753639137583 	0.9288266032307371 	101295.8778891889
-0.8295795795795798 	299.9802374920664 	0.9429141330455658 	101301.6381783803
-0.8270770770770772 	299.9854660977444 	0.9580282011080056 	101307.8186075054
-0.8245745745745746 	299.9909562298727 	0.9738974211470219 	101314.3082726322
-0.8220720720720721 	299.9966091051062 	0.9902369474662813 	101320.9907109502
-0.8195695695695699 	300.0023232885579 	1.00675360975332 	101327.7460079885
-0.817067067067067 	300.0079965455781 	1.02315138428591 	101334.4530862681
-0.8145645645645651 	300.0135269679211 	1.039136573892728 	101340.9918285175
-0.8120620620620621 	300.0188156866201 	1.054422524403187 	101347.2449585768
-0.8095595595595597 	300.0237675335005 	1.068734435525007 	101353.1000312985
-0.8070570570570572 	300.0282930954573 	1.081814209253482 	101358.45141315
-0.8045545545545546 	300.0323106003409 	1.093424820119449 	101363.2020651294
-0.8020520520520523 	300.0357464867153 	1.103354301411646 	101367.2651974544
-0.7995495495495494 	300.0385374832722 	1.111419445778443 	101370.5658056956
-0.7970470470470474 	300.0406312600621 	1.117468820157008 	101373.041870178
-0.7945445445445446 	300.0419871034276 	1.121385484919753 	101374.6454426426
-0.7920420420420423 	300.0425778051415 	1.123089715469491 	101375.3438805585
-0.7895395395395397 	300.0423892315258 	1.122539862753076 	101375.1203032707
-0.7870370370370371 	300.0414188451804 	1.119734237417947 	101373.9731943753
-0.7845345345345348 	300.039682593095 	1.114715234179194 	101371.9203254466
-0.7820320320320323 	300.0372103842752 	1.107568328653037 	101368.9969296083
-0.7795295295295296 	300.0340450946154 	1.098418115803479 	101365.2538784893
-0.7770270270270272 	300.030242685524 	1.087426836291373 	101360.7575116143
-0.7745245245245247 	300.0258717929194 	1.074793314689398 	101355.5891815536
-0.7720220220220222 	300.0210132363798 	1.060750463873933 	101349.8442935678
-0.7695195195195199 	300.0157576632893 	1.045560646766759 	101343.6303115926
-0.767017017017017 	300.0102042374016 	1.029510086505942 	101337.0643642201
-0.7645145145145147 	300.0044583254541 	1.012903507098535 	101330.2711816573
-0.7620120120120122 	299.9986296672855 	0.9960577429865161 	101323.3805496592
-0.7595095095095097 	299.9928295516032 	0.9792938915941529 	101316.5238619206
-0.7570070070070072 	299.9871678189022 	0.9629302266791441 	101309.8311848923
-0.7545045045045048 	299.9817517264918 	0.9472764042166969 	101303.4291418102
-0.7520020020020022 	299.9766832711788 	0.9326267827967791 	101297.438197748
-0.7494994994994997 	299.9720563259593 	0.9192531737139329 	101291.9694244351
-0.7469969969969972 	299.9679555062214 	0.9074001194341957 	101287.1226022638
-0.7444944944944945 	299.9644549814996 	0.8972821946530005 	101282.9853971495
-0.7419919919919924 	299.9616172222766 	0.8890798655047074 	101279.63165438
-0.7394894894894897 	299.9594913954926 	0.8829348865799158 	101277.119203389
-0.7369869869869872 	299.9581124132279 	0.878949145577212 	101275.4894647417
-0.7344844844844846 	299.9575019225083 	0.8771855840758954 	101274.768137613
-0.7319819819819822 	299.957668075234 	0.8776677083167372 	101274.9648174167
-0.7294794794794797 	299.9586056759834 	0.8803771884512219 	101276.0725338978
-0.7269769769769773 	299.9602928150825 	0.8852537960930233 	101278.06606881
-0.7244744744744747 	299.9626960151015 	0.8922010187409691 	101280.9059518392
-0.721971971971972 	299.9657704388791 	0.9010888356834161 	101284.5395054573
-0.7194694694694695 	299.9694593917123 	0.9117521908151347 	101288.8992432696
-0.7169669669669674 	299.9736945201442 	0.9239950060444481 	101293.9047221794
-0.7144644644644647 	299.9783998988078 	0.9375975964437639 	101299.4663320141
-0.711961961961962 	299.9834927113839 	0.9523185763610427 	101305.4858868097
-0.7094594594594597 	299.9888810895939 	0.9678937999779271 	101311.8553373632
-0.7069569569569573 	299.9944677124628 	0.9840422182844484 	101318.4592954308
-0.7044544544544545 	300.0001532186484 	1.00047679699466 	101325.1804573686
-0.7019519519519523 	300.0058380175707 	1.016908688948898 	101331.9012625678
-0.6994494494494495 	300.011421088118 	1.033044947880001 	101338.50193592
-0.6969469469469471 	300.0168005017736 	1.048593287210512 	101344.8622526786
-0.6944444444444446 	300.0218799988243 	1.063275569655859 	101350.868191915
-0.6919419419419421 	300.0265711590776 	1.076834482430393 	101356.4151994026
-0.6894394394394396 	300.0307905743932 	1.089027939505085 	101361.4046571311
-0.6869369369369374 	300.0344588235292 	1.099627802411279 	101365.7424317862
-0.6844344344344344 	300.0375057844224 	1.108433618732753 	101369.3456924372
-0.6819319319319321 	300.0398766786281 	1.115285421823327 	101372.1495170647
-0.6794294294294296 	300.0415290881217 	1.120058320802196 	101374.1037452072
-0.6769269269269272 	300.0424279902601 	1.122651664399072 	101375.1668008887
-0.6744244244244245 	300.0425487589989 	1.12299589040122 	101375.3091349023
-0.6719219219219222 	300.0418830877427 	1.121071140852626 	101374.5219124208
-0.6694194194194195 	300.0404441005229 	1.116912367640434 	101372.8207731918
-0.6669169169169172 	300.0382581673296 	1.110590552686963 	101370.2359952599
-0.6644144144144146 	300.0353565135408 	1.102199842885881 	101366.8046099451
-0.661911911911912 	300.0317844108659 	1.091876048980765 	101362.5806518026
-0.6594094094094097 	300.0276107154643 	1.079815281646298 	101357.6453250425
-0.656906906906907 	300.0229200325542 	1.066257361636631 	101352.0989209208
-0.6544044044044046 	300.0177990369361 	1.051452678875688 	101346.0439578103
-0.6519019019019021 	300.0123349485814 	1.03565875400747 	101339.583483142
-0.6493993993993996 	300.0066279552084 	1.019168840347814 	101332.8362884545
-0.6468968968968971 	300.0007974585591 	1.002322108523251 	101325.9432605527
-0.6443943943943946 	299.9949658468398 	0.9854662188456732 	101319.0493170252
-0.6418918918918921 	299.9892405065157 	0.9689130263537056 	101312.2812990209
-0.6393893893893897 	299.9837158311549 	0.9529435618148379 	101305.7507404445
-0.6368868868868871 	299.9784919100188 	0.9378506590197945 	101299.5760703869
-0.6343843843843846 	299.973680740214 	0.9239503241690897 	101293.8894063753
-0.6318818818818821 	299.9693851686205 	0.9115317540787274 	101288.8123478856
-0.6293793793793795 	299.9656763835457 	0.9008032280216139 	101284.4290013547
-0.6268768768768773 	299.9625990890507 	0.8919049263003385 	101280.7920462001
-0.6243743743743745 	299.9601986878532 	0.8849734437261155 	101277.9550851551
-0.6218718718718721 	299.9585337112417 	0.8801693631735417 	101275.9872091792
-0.6193693693693696 	299.957652728834 	0.8776218780485916 	101274.9461518417
-0.6168668668668671 	299.9575635976525 	0.8773549866794127 	101274.8413590995
-0.6143643643643645 	299.9582365763138 	0.87929252802603 	101275.6365249365
-0.6118618618618621 	299.9596358938093 	0.8833430017972176 	101277.2898300088
-0.6093593593593596 	299.9617488991065 	0.8894652957953191 	101279.7867784134
-0.6068568568568571 	299.9645714507065 	0.8976296792454624 	101283.1224654308
-0.6043543543543546 	299.9680631056672 	0.9077115803351509 	101287.2491413271
-0.6018518518518521 	299.9721294143558 	0.9194498936975677 	101292.0549477027
-0.5993493493493496 	299.9766555492533 	0.932532725535391 	101297.4045998175
-0.5968468468468471 	299.9815583166077 	0.9467220216152946 	101303.1995301541
-0.5943443443443446 	299.9867943097177 	0.9618745454808707 	101309.3886035367
-0.591841841841842 	299.9923144502466 	0.9778285945882917 	101315.9139703621
-0.5893393393393397 	299.9980138853295 	0.994281150710896 	101322.6514187519
-0.5868368368368371 	300.0037354471168 	1.010801180361162 	101329.4155023614
-0.5843343343343346 	300.0093311695156 	1.026981222065259 	101336.0311164323
-0.5818318318318321 	300.0147172994797 	1.042575281613149 	101342.3991796511
-0.5793293293293297 	300.0198655195796 	1.057476045313526 	101348.486335498
-0.5768268268268271 	300.0247369491327 	1.071548430657672 	101354.2463563623
-0.5743243243243245 	300.0292250548744 	1.084489588606622 	101359.5533995749
-0.5718218218218221 	300.0331704802512 	1.095867391421674 	101364.2189908499
-0.5693193193193196 	300.0364377425354 	1.105314857838373 	101368.0826458817
-0.5668168168168171 	300.0389818886096 	1.112699483005217 	101371.0913851591
-0.5643143143143147 	300.0408412037019 	1.118101578416409 	101373.290243314
-0.5618118118118121 	300.0420577875311 	1.121613418289653 	101374.7289903028
-0.5593093093093094 	300.0426004308 	1.123143297308535 	101375.370714318
-0.5568068068068072 	300.0423625600611 	1.122410066623163 	101375.0885892054
-0.5543043043043046 	300.0412373275699 	1.119148220657455 	101373.7585027966
-0.551801801801802 	300.039221332157 	1.113352594443788 	101371.3749067554
-0.5492992992992995 	300.0364337490761 	1.10534159512228 	101368.0785087346
-0.5467967967967969 	300.0330478729802 	1.095577997264097 	101364.0747166141
-0.5442942942942947 	300.0291861414246 	1.08439388744152 	101359.5081898317
-0.5417917917917919 	300.0248614257132 	1.07184171116141 	101354.3944550517
-0.5392892892892895 	300.0200165731121 	1.05779582402464 	101348.6658997744
-0.536786786786787 	300.0146301542134 	1.042228465078309 	101342.2972126147
-0.5342842842842846 	300.008806840061 	1.025444612762908 	101335.4123310696
-0.531781781781782 	300.002781158663 	1.008089581354657 	101328.2884366139
-0.5292792792792794 	299.9968276896185 	0.990914311375749 	101321.2502718564
-0.526776776776777 	299.9911425981466 	0.9744626069307279 	101314.5297564665
-0.5242742742742745 	299.9857784480847 	0.9588983332157727 	101308.188850063
-0.521771771771772 	299.9806756293873 	0.9440889214845087 	101302.1571779493
-0.5192692692692695 	299.9757685378214 	0.9298847408171214 	101296.3570914347
-0.516766766766767 	299.9710931429789 	0.9164045292334748 	101290.8310172287
-0.5142642642642645 	299.9668254576829 	0.9041384463474674 	101285.7871221383
-0.511761761761762 	299.9632274539496 	0.8938023747761411 	101281.5346978978
-0.5092592592592596 	299.9605322040746 	0.8860322451579892 	101278.3493207786
-0.506756756756757 	299.9588384164718 	0.8810996768032661 	101276.3475618622
-0.5042542542542544 	299.9580733044814 	0.8788126985938187 	101275.4432450495
-0.5017517517517521 	299.9580442398366 	0.8786565200600773 	101275.4092906323
-0.4992492492492494 	299.9585527683049 	0.8800928878563138 	101276.0099953844
-0.496746746746747 	299.9594984507404 	0.8828514721900393 	101277.1273412024
-0.4942442442442445 	299.9609305641993 	0.8870638341653954 	101278.819753826
-0.4917417417417421 	299.9630160529902 	0.8931775890851573 	101281.2842800279
-0.4892392392392395 	299.9659434229975 	0.9016984728648688 	101284.7439567637
-0.486736736736737 	299.9698136550643 	0.9128905743537228 	101289.3179308246
-0.4842342342342345 	299.9745655723 	0.9265745913294132 	101294.9342221448
-0.481731731731732 	299.979970712104 	0.9421119855333793 	101301.3229412929
-0.4792292292292296 	299.9856965684361 	0.9585771277368405 	101308.0909599899
-0.4767267267267268 	299.9914087338637 	0.9750382495067729 	101314.8432760794
-0.4742242242242246 	299.9968697565403 	0.990827505600322 	101321.2989342658
-0.471721721721722 	300.0019942284761 	1.005696657838945 	101327.357026951
-0.4692192192192195 	300.0068461241203 	1.019810627919093 	101333.0931971869
-0.4667167167167169 	300.0115831694725 	1.03359460773188 	101338.6936555175
-0.4642142142142145 	300.0163714407494 	1.047499994750495 	101344.3550058803
-0.461711711711712 	300.0213035587805 	1.061774775989033 	101350.1866057534
-0.4592092092092094 	300.0263438394891 	1.076311312275218 	101356.1463383414
-0.456706706706707 	300.0313163458254 	1.09061094394849 	101362.0263154656
-0.4542042042042045 	300.0359346535737 	1.103864393150552 	101367.4875657145
-0.451701701701702 	300.0398591689948 	1.115113538864944 	101372.1286937767
-0.4491991991991995 	300.0427668025574 	1.123444861750937 	101375.5673924743
-0.4466966966966969 	300.0444130810359 	1.128165809001632 	101377.5143692234
-0.4441941941941945 	300.0446756709566 	1.128925473961172 	101377.8241536112
-0.441691691691692 	300.0435665733298 	1.125761076284439 	101376.5123522702
-0.4391891891891895 	300.0412288368508 	1.119079108456896 	101373.7488433801
-0.436686686686687 	300.0379100911863 	1.10957344420861 	101369.8244468196
-0.4341841841841846 	300.0339107010871 	1.098100369269284 	101365.0950257284
-0.431681681681682 	300.0295438495365 	1.0855542600229 	101359.9312182275
-0.4291791791791794 	300.0250987005609 	1.072763299808684 	101354.6749943324
-0.426676676676677 	300.0208143779932 	1.060415613604981 	101349.6091083641
-0.4241741741741744 	300.0168671657063 	1.04902131685978 	101344.9419757045
-0.421671671671672 	300.0133687956267 	1.038906325270271 	101340.8056653165
-0.4191691691691694 	300.0103726362827 	1.030229160230833 	101337.2632326072
-0.4166666666666669 	300.0078846288782 	1.023011636978807 	101334.3216607221
-0.4141641641641645 	300.005876152553 	1.017175355673078 	101331.947077933
-0.411661661661662 	300.0042966201761 	1.012577672861589 	101330.0796511983
-0.4091591591591594 	300.0030843583552 	1.009042960056764 	101328.6464496506
-0.406656656656657 	300.0021750505633 	1.006387006295427 	101327.5714243148
-0.4041541541541545 	300.0015075971916 	1.004434080286009 	101326.7823340387
-0.401651651651652 	300.0010276391613 	1.00302730278972 	101326.2149101742
-0.3991491491491494 	300.0006892040524 	1.002033600353728 	101325.8148005042
-0.396646646646647 	300.0004549931526 	1.001344714287506 	101325.5379085892
-0.3941441441441444 	300.0002957990732 	1.000875655611997 	101325.349704036
-0.3916416416416419 	300.0001894508218 	1.000561756363025 	101325.2239756199
-0.3891391391391395 	300.0001195821195 	1.000355169516044 	101325.1413744451
-0.3866366366366368 	300.0000744146434 	1.000221385045421 	101325.0879758451
-0.3841341341341344 	300.0000456684704 	1.000136090824537 	101325.0539910476
-0.381631631631632 	300.0000276486921 	1.000082530105378 	101325.0326874599
-0.3791291291291294 	300.0000165182068 	1.000049388592319 	101325.0195285359
-0.3766266266266269 	300.0000097409645 	1.000029173774313 	101325.0115161832
-0.3741241241241244 	300.0000056716304 	1.000017014737944 	101325.0067052193
-0.371621621621622 	300.0000032612766 	1.000009800176976 	101325.0038556048
-0.3691191191191194 	300.000001852468 	1.000005576014872 	101325.0021900362
-0.366616616616617 	300.0000010396664 	1.000003134664783 	101325.0012291042
-0.3641141141141143 	300.0000005765891 	1.000001741543902 	101325.0006817099
-0.3616116116116119 	300.0000003160903 	1.000000956414602 	101325.0003737441
-0.3591091091091095 	300.0000001713461 	1.00000051929297 	101325.0002025815
-0.356606606606607 	300.0000000918258 	1.000000278814966 	101325.0001085821
-0.3541041041041044 	300.0000000486875 	1.000000148061195 	101325.0000575599
-0.3516016016016019 	300.0000000255526 	1.000000077778971 	101325.0000301823
-0.3490990990990994 	300.0000000132649 	1.000000040426715 	101325.0000156567
-0.346596596596597 	300.0000000068472 	1.000000020801952 	101325.0000080359
-0.3440940940940944 	300.0000000035058 	1.000000010586818 	101325.0000040802
-0.3415915915915919 	300.0000000017777 	1.000000005338231 	101325.0000020487
-0.3390890890890895 	300.0000000008541 	1.00000000266907 	101325.0000010164
-0.3365865865865869 	300.0000000004364 	1.000000001322782 	101325.0000004971
-0.3340840840840844 	300.0000000002103 	1.000000000650915 	101325.0000002387
-0.3315815815815819 	300.0000000001245 	1.000000000319158 	101325.0000001109
-0.3290790790790794 	300.000000000077 	1.000000000155207 	101325.0000000485
-0.3265765765765769 	299.9999999999723 	1.000000000074716 	101325.0000000177
-0.3240740740740744 	299.9999999999961 	1.000000000036458 	101325.0000000032
-0.3215715715715718 	300.0000000000027 	1.000000000019086 	101324.9999999968
-0.3190690690690695 	299.999999999944 	1.000000000012156 	101324.9999999943
-0.3165665665665668 	299.9999999999863 	1.000000000008912 	101324.9999999923
-0.3140640640640644 	299.9999999999986 	1.000000000006648 	101324.9999999914
-0.311561561561562 	299.9999999999433 	1.000000000006798 	101324.9999999908
-0.3090590590590593 	299.9999999999875 	1.00000000000516 	101324.9999999905
-0.3065565565565568 	299.9999999999972 	1.00000000001791 	101324.9999999908
-0.3040540540540545 	299.9999999999989 	0.9999999999978473 	101324.9999999905
-0.3015515515515518 	300.0000000000143 	0.9999999999976739 	101324.9999999904
-0.2990490490490494 	299.9999999999561 	1.000000000003465 	101324.9999999903
-0.2965465465465469 	299.9999999999818 	1.000000000004723 	101324.9999999905
-0.2940440440440444 	300.0000000000074 	1.000000000004987 	101324.9999999906
-0.2915415415415418 	300.0000000000165 	1.000000000005488 	101324.9999999907
-0.2890390390390395 	300.0000000000176 	1.00000000000486 	101324.9999999907
-0.2865365365365368 	299.9999999999853 	1.000000000004839 	101324.9999999906
-0.2840340340340343 	299.999999999989 	1.0000000000122 	101324.9999999901
-0.2815315315315318 	299.9999999999619 	1.000000000001333 	101324.9999999898
-0.2790290290290295 	299.9999999999449 	1.000000000000376 	101324.9999999902
-0.2765265265265269 	299.9999999999886 	1.000000000003009 	101324.9999999906
-0.2740240240240244 	300.0000000000287 	1.000000000002937 	101324.9999999906
-0.2715215215215219 	300.0000000000336 	1.000000000002139 	101324.999999991
-0.2690190190190194 	299.999999999966 	1.000000000002805 	101324.9999999909
-0.2665165165165169 	299.9999999999778 	1.000000000004241 	101324.9999999904
-0.2640140140140144 	299.9999999999646 	1.000000000004636 	101324.9999999905
-0.2615115115115119 	299.9999999999825 	1.000000000011615 	101324.9999999901
-0.2590090090090094 	299.9999999999285 	1.000000000001524 	101324.9999999897
-0.2565065065065068 	299.9999999999772 	1.000000000001609 	101324.9999999898
-0.2540040040040044 	299.9999999999979 	1.00000000000344 	101324.9999999895
-0.2515015015015019 	300.0000000000365 	1.000000000003353 	101324.99999999
-0.2489989989989994 	300.0000000000525 	1.000000000004141 	101324.99999999
-0.2464964964964968 	300.0000000000099 	1.000000000003498 	101324.9999999899
-0.2439939939939944 	300.0000000000007 	1.000000000010292 	101324.9999999891
-0.2414914914914919 	299.9999999999654 	1.000000000000193 	101324.9999999892
-0.2389889889889893 	299.9999999999737 	1.000000000001435 	101324.9999999891
-0.2364864864864869 	300.0000000000159 	1.00000000000388 	101324.999999989
-0.2339839839839843 	299.9999999999581 	1.000000000010702 	101324.9999999892
-0.2314814814814819 	299.9999999999653 	1.000000000000287 	101324.9999999898
-0.2289789789789792 	299.9999999999208 	1.000000000001802 	101324.9999999905
-0.2264764764764769 	299.9999999999217 	1.000000000005356 	101324.9999999911
-0.2239739739739743 	299.9999999999455 	1.000000000005033 	101324.9999999908
-0.2214714714714718 	299.9999999999245 	1.000000000004598 	101324.9999999904
-0.2189689689689693 	299.9999999999372 	1.000000000002615 	101324.9999999903
-0.2164664664664669 	299.9999999999645 	1.0000000000089 	101324.9999999905
-0.2139639639639643 	299.9999999999256 	0.9999999999984129 	101324.9999999901
-0.2114614614614618 	299.9999999999419 	1.000000000000706 	101324.9999999902
-0.2089589589589593 	299.9999999999935 	1.000000000004051 	101324.99999999
-0.2064564564564568 	299.9999999999985 	1.000000000003314 	101324.9999999904
-0.2039539539539543 	299.9999999999183 	1.000000000001522 	101324.9999999907
-0.2014514514514518 	299.999999999919 	1.000000000000382 	101324.9999999906
-0.1989489489489494 	299.9999999999491 	1.000000000007603 	101324.99999999
-0.1964464464464468 	299.9999999999952 	0.9999999999977128 	101324.9999999892
-0.1939439439439443 	299.9999999999982 	0.9999999999993338 	101324.9999999893
-0.1914414414414418 	299.9999999999393 	1.000000000002177 	101324.9999999888
-0.1889389389389393 	299.9999999999652 	1.000000000001464 	101324.9999999892
-0.1864364364364368 	300.0000000000278 	1.000000000001241 	101324.999999989
-0.1839339339339343 	299.9999999999899 	1.000000000001739 	101324.9999999886
-0.1814314314314318 	299.9999999999857 	1.000000000001781 	101324.9999999891
-0.1789289289289293 	299.9999999999098 	1.000000000001558 	101324.9999999895
-0.1764264264264268 	299.9999999999371 	1.000000000002015 	101324.9999999895
-0.1739239239239243 	299.9999999998993 	1.000000000003175 	101324.9999999895
-0.1714214214214218 	299.9999999999562 	1.000000000003565 	101324.99999999
-0.1689189189189193 	299.9999999999383 	1.000000000003636 	101324.99999999
-0.1664164164164168 	299.9999999999832 	1.000000000002844 	101324.9999999904
-0.1639139139139143 	300.0000000000017 	1.000000000002613 	101324.9999999901
-0.1614114114114118 	300.0000000000245 	1.000000000001228 	101324.9999999894
-0.1589089089089093 	300.0000000000205 	1.000000000016633 	101324.9999999886
-0.1564064064064068 	299.9999999999823 	0.9999999999958966 	101324.9999999884
-0.1539039039039043 	299.9999999999883 	1.000000000005877 	101324.999999989
-0.1514014014014018 	300.0000000000131 	1.000000000000934 	101324.9999999898
-0.1488988988988993 	300.0000000000035 	1.000000000009645 	101324.9999999903
-0.1463963963963968 	300.0000000000001 	1.000000000001033 	101324.9999999905
-0.1438938938938943 	299.9999999999604 	1.000000000003 	101324.9999999908
-0.1413913913913918 	299.9999999999202 	1.000000000004904 	101324.9999999905
-0.1388888888888893 	299.9999999999497 	1.000000000002622 	101324.9999999905
-0.1363863863863868 	299.9999999999155 	1.000000000002166 	101324.9999999909
-0.1338838838838843 	299.9999999998883 	1.000000000002667 	101324.9999999908
-0.1313813813813818 	299.9999999999588 	1.000000000003308 	101324.9999999905
-0.1288788788788793 	299.9999999999379 	1.000000000003559 	101324.9999999904
-0.1263763763763768 	299.9999999999619 	1.000000000003486 	101324.9999999904
-0.1238738738738743 	299.9999999999364 	1.000000000002948 	101324.9999999905
-0.1213713713713717 	299.999999999959 	1.000000000003086 	101324.9999999902
-0.1188688688688693 	300.0000000000125 	1.000000000003017 	101324.9999999901
-0.1163663663663668 	299.9999999999206 	1.000000000002958 	101324.9999999894
-0.1138638638638643 	299.9999999999609 	1.000000000011241 	101324.9999999895
-0.1113613613613618 	299.9999999999825 	0.9999999999995914 	101324.9999999901
-0.1088588588588592 	299.9999999999832 	1.000000000008516 	101324.9999999899
-0.1063563563563568 	299.9999999999663 	1.000000000000123 	101324.9999999897
-0.1038538538538543 	299.9999999999736 	1.000000000001841 	101324.9999999902
-0.1013513513513517 	299.9999999999976 	1.000000000004533 	101324.9999999901
-0.09884884884884926 	299.9999999999757 	1.000000000004792 	101324.9999999896
-0.09634634634634676 	299.9999999999137 	1.000000000003177 	101324.9999999897
-0.09384384384384425 	299.9999999998763 	1.000000000001966 	101324.9999999895
-0.09134134134134177 	299.9999999999804 	1.000000000001006 	101324.9999999902
-0.08883883883883925 	300.0000000000061 	1.000000000001213 	101324.9999999908
-0.08633633633633674 	299.9999999999495 	1.000000000002012 	101324.9999999898
-0.08383383383383426 	299.9999999999843 	1.000000000001834 	101324.9999999891
-0.08133133133133173 	299.999999999971 	1.000000000000415 	101324.9999999892
-0.07882882882882926 	299.9999999999054 	0.9999999999993446 	101324.9999999896
-0.07632632632632676 	299.9999999999384 	0.9999999999999759 	101324.9999999906
-0.07382382382382424 	299.9999999998906 	1.000000000000629 	101324.9999999908
-0.07132132132132173 	299.9999999999554 	1.000000000001681 	101324.9999999905
-0.06881881881881925 	299.9999999999461 	1.000000000001827 	101324.9999999901
-0.06631631631631671 	299.9999999998867 	1.000000000001473 	101324.9999999894
-0.06381381381381425 	299.9999999999238 	1.000000000001251 	101324.9999999898
-0.06131131131131173 	299.9999999999392 	1.000000000002576 	101324.9999999899
-0.05880880880880923 	299.9999999999401 	1.000000000003931 	101324.9999999901
-0.05630630630630672 	299.9999999999355 	1.000000000004682 	101324.99999999
-0.05380380380380424 	300.0000000000142 	1.000000000004996 	101324.9999999896
-0.05130130130130173 	300.0000000000104 	1.000000000003372 	101324.9999999895
-0.04879879879879922 	299.9999999999202 	1.00000000000188 	101324.9999999891
-0.04629629629629672 	299.999999999904 	1.000000000001036 	101324.9999999887
-0.04379379379379422 	299.9999999999193 	1.000000000000964 	101324.9999999891
-0.04129129129129173 	299.9999999999323 	1.000000000001198 	101324.9999999894
-0.03878878878878922 	299.9999999999933 	1.000000000001627 	101324.9999999899
-0.03628628628628671 	299.999999999979 	1.00000000000161 	101324.999999989
-0.03378378378378422 	299.9999999999137 	1.000000000001272 	101324.9999999896
-0.03128128128128172 	299.9999999999314 	1.000000000001165 	101324.9999999898
-0.02877877877877922 	299.9999999999872 	1.000000000001376 	101324.9999999899
-0.0262762762762767 	299.9999999999054 	1.000000000001879 	101324.9999999896
-0.02377377377377422 	299.999999999959 	1.000000000002048 	101324.9999999893
-0.0212712712712717 	299.9999999998911 	1.000000000001896 	101324.9999999893
-0.01876876876876921 	299.999999999947 	1.000000000001815 	101324.9999999893
-0.01626626626626671 	299.9999999999785 	1.000000000001283 	101324.9999999891
-0.0137637637637642 	299.999999999944 	1.000000000000601 	101324.9999999897
-0.0112612612612617 	299.9999999999723 	1.000000000000174 	101324.9999999901
-0.008758758758759198 	299.9999999999653 	1.000000000001088 	101324.9999999899
-0.006256256256256697 	299.9999999999192 	1.0000000000026 	101324.9999999897
-0.003753753753754195 	299.9999999999207 	1.000000000003052 	101324.9999999894
-0.001251251251251693 	299.9999999999199 	1.000000000001924 	101324.99999999
0.00125125125125081 	299.9999999999042 	1.000000000001277 	101324.9999999901
0.003753753753753312 	299.9999999999134 	1.000000000000538 	101324.9999999897
0.006256256256255817 	299.9999999999027 	1.000000000000047 	101324.9999999892
0.008758758758758317 	299.9999999999187 	1.000000000001376 	101324.9999999888
0.01126126126126082 	299.9999999999556 	1.000000000001804 	101324.9999999886
0.01376376376376332 	299.999999999934 	1.000000000001336 	101324.9999999889
0.01626626626626582 	299.9999999999707 	1.000000000000048 	101324.9999999896
0.01876876876876833 	299.999999999971 	0.9999999999994799 	101324.9999999901
0.02127127127127083 	299.9999999999197 	0.9999999999982442 	101324.9999999902
0.02377377377377332 	299.9999999999677 	0.9999999999981594 	101324.9999999901
0.02627627627627583 	299.9999999999135 	0.9999999999980659 	101324.9999999891
0.02877877877877833 	299.9999999999577 	0.9999999999978173 	101324.9999999888
0.03128128128128083 	299.9999999999567 	0.9999999999968432 	101324.9999999891
0.03378378378378333 	299.9999999999111 	0.9999999999965212 	101324.9999999894
0.03628628628628584 	299.999999999933 	0.9999999999975328 	101324.9999999893
0.03878878878878834 	299.9999999999858 	0.9999999999989698 	101324.9999999893
0.04129129129129084 	299.999999999937 	1.000000000000562 	101324.9999999891
0.04379379379379333 	299.9999999999361 	1.000000000000695 	101324.9999999894
0.04629629629629585 	299.99999999992 	1.000000000000016 	101324.9999999895
0.04879879879879834 	299.9999999999001 	0.9999999999985104 	101324.9999999896
0.05130130130130085 	299.9999999999815 	0.9999999999974414 	101324.9999999895
0.05380380380380335 	300.0000000000146 	0.9999999999970908 	101324.9999999893
0.05630630630630584 	299.9999999999856 	0.9999999999984736 	101324.9999999889
0.05880880880880836 	299.9999999999344 	1.000000000000666 	101324.9999999885
0.06131131131131085 	299.9999999999411 	1.000000000002061 	101324.999999989
0.06381381381381336 	299.9999999999548 	1.000000000001666 	101324.9999999889
0.06631631631631586 	299.9999999999102 	0.9999999999997043 	101324.9999999892
0.06881881881881835 	299.9999999999304 	0.9999999999990772 	101324.99999999
0.07132132132132088 	299.9999999999715 	0.9999999999980094 	101324.9999999899
0.07382382382382337 	299.9999999999154 	0.999999999997738 	101324.9999999904
0.07632632632632587 	299.9999999999376 	0.9999999999973813 	101324.99999999
0.07882882882882837 	299.9999999999371 	0.9999999999964815 	101324.99999999
0.08133133133133086 	299.9999999999523 	0.9999999999969006 	101324.99999999
0.08383383383383337 	299.9999999999737 	0.9999999999988729 	101324.9999999902
0.08633633633633589 	299.9999999999109 	0.999999999998844 	101324.9999999901
0.08883883883883838 	299.9999999999769 	0.9999999999999664 	101324.9999999902
0.09134134134134086 	299.9999999999758 	0.9999999999998652 	101324.9999999897
0.09384384384384339 	299.9999999999058 	0.999999999998175 	101324.9999999893
0.09634634634634588 	299.9999999999363 	0.9999999999975623 	101324.999999989
0.09884884884884838 	299.9999999999584 	0.9999999999979026 	101324.9999999889
0.1013513513513509 	300.000000000019 	0.9999999999990706 	101324.9999999885
0.1038538538538534 	299.9999999999824 	0.9999999999996867 	101324.9999999886
0.1063563563563559 	299.9999999999927 	0.9999999999997652 	101324.9999999892
0.1088588588588584 	300.0000000000236 	1.000000000000246 	101324.9999999893
0.1113613613613609 	299.9999999999675 	1.000000000000246 	101324.9999999889
0.1138638638638634 	299.9999999999218 	1.000000000000429 	101324.9999999883
0.1163663663663659 	299.9999999999275 	0.9999999999997262 	101324.9999999883
0.1188688688688684 	299.9999999999461 	0.9999999999990209 	101324.9999999891
0.1213713713713709 	299.9999999999858 	0.9999999999993933 	101324.9999999894
0.1238738738738734 	299.9999999999355 	0.9999999999995312 	101324.9999999892
0.1263763763763759 	299.9999999999712 	1.000000000000624 	101324.9999999895
0.1288788788788784 	299.9999999999791 	0.9999999999998694 	101324.9999999899
0.1313813813813809 	299.999999999979 	0.9999999999988479 	101324.9999999904
0.1338838838838834 	299.9999999999749 	0.9999999999974288 	101324.999999991
0.1363863863863859 	300.0000000000049 	0.9999999999965051 	101324.9999999906
0.1388888888888884 	300.0000000000332 	0.9999999999966953 	101324.99999999
0.1413913913913909 	300.0000000000121 	0.9999999999978297 	101324.9999999898
0.1438938938938934 	299.9999999999958 	0.9999999999976781 	101324.9999999893
0.1463963963963959 	299.9999999999586 	0.9999999999968183 	101324.9999999888
0.1488988988988985 	299.9999999999048 	0.9999999999965001 	101324.9999999896
0.1514014014014009 	299.9999999999471 	0.9999999999969349 	101324.9999999893
0.1539039039039035 	299.9999999999491 	0.9999999999974469 	101324.9999999897
0.1564064064064059 	299.9999999999257 	1.000000000004857 	101324.9999999896
0.1589089089089084 	299.9999999999534 	0.9999999999941128 	101324.9999999894
0.1614114114114109 	299.9999999999512 	0.9999999999964757 	101324.9999999896
0.1639139139139134 	299.9999999999171 	0.9999999999988146 	101324.9999999895
0.166416416416416 	299.9999999999525 	0.9999999999979723 	101324.9999999897
0.1689189189189185 	300.0000000000281 	0.9999999999974362 	101324.9999999894
0.1714214214214209 	300.000000000017 	0.9999999999971911 	101324.9999999897
0.1739239239239235 	299.9999999999884 	0.9999999999978948 	101324.9999999894
0.1764264264264259 	299.9999999999681 	0.9999999999978898 	101324.9999999895
0.1789289289289284 	300.000000000008 	1.000000000004446 	101324.9999999896
0.181431431431431 	299.9999999999897 	0.9999999999934596 	101324.9999999896
0.1839339339339334 	299.9999999999856 	0.9999999999959583 	101324.999999989
0.186436436436436 	299.9999999999393 	0.9999999999984001 	101324.9999999891
0.1889389389389385 	299.999999999972 	0.9999999999978176 	101324.9999999898
0.191441441441441 	299.9999999999693 	0.9999999999968732 	101324.9999999899
0.1939439439439434 	299.9999999999349 	0.9999999999956537 	101324.9999999898
0.196446446446446 	299.9999999999236 	1.00000000000139 	101324.9999999895
0.1989489489489485 	299.999999999957 	0.9999999999911724 	101324.9999999892
0.2014514514514509 	299.999999999984 	0.9999999999937412 	101324.9999999896
0.2039539539539535 	299.999999999982 	0.999999999996778 	101324.9999999894
0.2064564564564559 	299.9999999999478 	0.9999999999965568 	101324.9999999898
0.2089589589589585 	299.9999999999671 	0.9999999999966497 	101324.99999999
0.211461461461461 	299.9999999999433 	0.9999999999963484 	101324.9999999898
0.2139639639639635 	299.9999999999679 	0.999999999997222 	101324.9999999895
0.2164664664664659 	300.0000000000144 	0.999999999997387 	101324.9999999892
0.2189689689689684 	300.0000000000165 	1.000000000002247 	101324.9999999896
0.221471471471471 	300.0000000000117 	0.9999999999913645 	101324.9999999899
0.2239739739739735 	299.9999999999641 	0.9999999999938135 	101324.9999999898
0.226476476476476 	299.9999999999817 	0.9999999999977804 	101324.9999999896
0.2289789789789785 	300.0000000000005 	0.999999999998335 	101324.9999999893
0.231481481481481 	299.9999999999842 	0.9999999999985075 	101324.9999999896
0.2339839839839835 	299.9999999999682 	0.9999999999990984 	101324.9999999898
0.236486486486486 	300.0000000000044 	0.9999999999983462 	101324.9999999895
0.2389889889889885 	299.9999999999984 	0.9999999999971068 	101324.9999999892
0.241491491491491 	299.9999999999332 	1.000000000002478 	101324.9999999884
0.2439939939939935 	299.9999999999665 	0.999999999991845 	101324.9999999884
0.246496496496496 	299.9999999999841 	0.9999999999945429 	101324.9999999889
0.2489989989989985 	300.0000000000388 	0.9999999999983161 	101324.9999999893
0.251501501501501 	300.0000000000366 	0.9999999999991208 	101324.9999999899
0.2540040040040035 	300.0000000000057 	0.9999999999985304 	101324.9999999896
0.256506506506506 	300.0000000000255 	0.9999999999985787 	101324.9999999897
0.2590090090090086 	299.9999999999362 	1.000000000004023 	101324.9999999896
0.261511511511511 	299.9999999999793 	0.9999999999930749 	101324.9999999899
0.2640140140140135 	299.9999999999758 	0.9999999999957933 	101324.9999999899
0.2665165165165161 	299.9999999999323 	0.9999999999983306 	101324.9999999896
0.2690190190190185 	299.9999999999852 	0.9999999999982607 	101324.9999999898
0.271521521521521 	300.0000000000267 	0.9999999999975554 	101324.9999999892
0.2740240240240235 	300.0000000000359 	0.9999999999970759 	101324.9999999889
0.276526526526526 	300.0000000000277 	0.9999999999965713 	101324.9999999889
0.2790290290290286 	299.9999999999633 	0.9999999999966176 	101324.9999999891
0.281531531531531 	299.9999999999277 	1.000000000002425 	101324.9999999893
0.2840340340340335 	299.9999999999622 	0.9999999999926412 	101324.9999999889
0.2865365365365361 	299.9999999999692 	0.9999999999955999 	101324.9999999888
0.2890390390390385 	300.0000000000037 	0.9999999999983618 	101324.9999999891
0.291541541541541 	300.0000000000178 	0.9999999999989742 	101324.999999989
0.2940440440440436 	300.0000000000156 	0.9999999999988164 	101324.9999999886
0.296546546546546 	300.0000000000146 	0.9999999999993417 	101324.9999999886
0.2990490490490486 	299.999999999966 	0.999999999999345 	101324.9999999889
0.3015515515515511 	300.0000000000039 	0.9999999999995279 	101324.9999999893
0.3040540540540535 	300.0000000000045 	1.000000000009478 	101324.999999989
0.3065565565565562 	300.0000000000086 	0.9999999999887735 	101324.9999999889
0.3090590590590585 	300.0000000000018 	0.9999999999940044 	101324.9999999885
0.3115615615615611 	299.9999999999559 	0.9999999999994724 	101324.9999999885
0.3140640640640635 	300.0000000000034 	0.9999999999985749 	101324.9999999888
0.316566566566566 	299.9999999999962 	0.9999999999984014 	101324.999999989
0.3190690690690687 	299.9999999999422 	0.9999999999989684 	101324.9999999891
0.3215715715715711 	299.9999999999862 	0.999999999998659 	101324.999999989
0.3240740740740735 	299.9999999999955 	0.9999999999980248 	101324.9999999895
0.326576576576576 	299.9999999999362 	0.9999999999976242 	101324.9999999893
0.3290790790790786 	299.9999999999997 	0.9999999999977258 	101324.9999999893
0.3315815815815811 	300.0000000000222 	0.9999999999976874 	101324.9999999888
0.3340840840840836 	300.0000000000096 	0.9999999999980572 	101324.9999999891
0.3365865865865861 	300.0000000000344 	0.9999999999980637 	101324.9999999891
0.3390890890890886 	300.000000000054 	0.9999999999980643 	101324.9999999888
0.3415915915915911 	300.0000000000251 	0.9999999999978666 	101324.9999999885
0.3440940940940935 	299.9999999999405 	1.000000000001984 	101324.9999999883
0.3465965965965962 	299.9999999999949 	0.9999999999916327 	101324.9999999887
0.3490990990990985 	300.0000000000115 	0.9999999999949052 	101324.9999999891
0.3516016016016011 	300.0000000000197 	0.999999999997937 	101324.9999999889
0.3541041041041035 	300.0000000000067 	0.9999999999981135 	101324.9999999887
0.3566066066066061 	299.9999999999336 	0.9999999999982198 	101324.9999999891
0.3591091091091085 	299.9999999999406 	0.9999999999983384 	101324.9999999894
0.3616116116116112 	299.9999999999615 	0.9999999999989341 	101324.9999999892
0.3641141141141137 	299.9999999999408 	1.000000000000039 	101324.9999999888
0.3666166166166161 	299.9999999998972 	1.00000000000992 	101324.9999999884
0.3691191191191185 	299.9999999999769 	0.999999999990524 	101324.9999999886
0.371621621621621 	299.9999999999975 	0.9999999999953809 	101324.9999999889
0.3741241241241237 	300.0000000000264 	1.000000000001126 	101324.9999999889
0.3766266266266261 	300.0000000000155 	1.000000000000668 	101324.9999999889
0.3791291291291286 	299.9999999999945 	0.9999999999993907 	101324.9999999892
0.3816316316316311 	299.9999999999495 	0.9999999999993842 	101324.9999999894
0.3841341341341336 	299.9999999999787 	0.9999999999992366 	101324.9999999893
0.3866366366366362 	299.9999999999749 	0.9999999999990203 	101324.9999999895
0.3891391391391387 	299.9999999999575 	0.9999999999991236 	101324.9999999893
0.391641641641641 	299.9999999999935 	0.9999999999992942 	101324.9999999895
0.3941441441441436 	299.9999999999993 	0.999999999999179 	101324.9999999898
0.3966466466466462 	299.999999999997 	0.9999999999985516 	101324.9999999896
0.3991491491491486 	299.9999999999779 	0.9999999999985052 	101324.9999999894
0.4016516516516512 	299.99999999994 	0.9999999999986738 	101324.9999999891
0.4041541541541536 	299.9999999999608 	1.000000000000277 	101324.9999999893
0.4066566566566561 	299.999999999964 	1.00000000000463 	101324.9999999897
0.4091591591591587 	300.0000000000059 	0.9999999999945421 	101324.99999999
0.4116616616616612 	300.0000000000252 	0.9999999999973559 	101324.9999999898
0.4141641641641635 	300.0000000000433 	1.00000000000012 	101324.9999999894
0.4166666666666662 	300.0000000000256 	0.9999999999999879 	101324.9999999892
0.4191691691691687 	299.9999999999457 	0.9999999999987608 	101324.9999999894
0.421671671671671 	299.9999999999779 	0.9999999999993832 	101324.9999999897
0.4241741741741737 	299.9999999999623 	0.9999999999998507 	101324.9999999901
0.4266766766766761 	299.999999999933 	1.000000000000834 	101324.9999999904
0.4291791791791785 	299.9999999999753 	1.000000000009428 	101324.9999999903
0.4316816816816812 	299.9999999999806 	0.9999999999904058 	101324.9999999903
0.4341841841841836 	299.9999999999994 	0.999999999996102 	101324.9999999896
0.4366866866866862 	299.999999999965 	1.00000000000181 	101324.9999999896
0.4391891891891885 	300.000000000001 	1.000000000001386 	101324.9999999898
0.4416916916916913 	300.0000000000092 	1.000000000001511 	101324.99999999
0.4441941941941936 	299.9999999999912 	1.000000000001507 	101324.99999999
0.4466966966966961 	299.9999999999195 	1.000000000000748 	101324.99999999
0.4491991991991987 	299.9999999999635 	1.00000000000022 	101324.99999999
0.4517017017017012 	299.9999999999568 	1.00000000000092 	101324.99999999
0.4542042042042035 	299.9999999999912 	1.00000000000169 	101324.9999999897
0.4567067067067062 	300.000000000007 	1.000000000001421 	101324.9999999893
0.4592092092092087 	299.9999999999256 	1.000000000000322 	101324.9999999893
0.4617117117117112 	299.9999999999668 	1.000000000000084 	101324.9999999894
0.4642142142142137 	299.9999999999439 	1.000000000000369 	101324.9999999897
0.4667167167167162 	299.9999999999786 	1.000000000001692 	101324.9999999895
0.4692192192192187 	299.9999999999466 	1.000000000002137 	101324.9999999889
0.4717217217217212 	299.9999999999899 	1.000000000001078 	101324.9999999882
0.4742242242242236 	299.9999999999601 	1.00000000000004 	101324.9999999883
0.4767267267267262 	299.9999999999424 	0.9999999999993257 	101324.999999989
0.4792292292292287 	299.9999999999956 	0.9999999999993172 	101324.9999999896
0.4817317317317312 	300.0000000000219 	1.000000000000408 	101324.9999999897
0.4842342342342336 	300.0000000000149 	1.000000000001269 	101324.9999999892
0.4867367367367362 	299.9999999999894 	1.000000000002264 	101324.9999999886
0.4892392392392387 	300.0000000000097 	1.000000000003181 	101324.9999999881
0.4917417417417412 	300.0000000000396 	1.000000000003802 	101324.999999988
0.4942442442442437 	299.9999999999799 	1.000000000004787 	101324.9999999876
0.4967467467467462 	299.9999999999251 	1.000000000007927 	101324.9999999875
0.4992492492492487 	299.9999999998821 	0.9999999999980583 	101324.9999999882
0.5017517517517511 	299.9999999999072 	0.9999999999996257 	101324.9999999889
0.5042542542542537 	299.9999999999694 	1.00000000000206 	101324.9999999891
0.5067567567567562 	299.9999999999645 	1.000000000002334 	101324.9999999886
0.5092592592592589 	299.9999999999494 	1.000000000001999 	101324.9999999885
0.5117617617617611 	299.9999999999729 	1.000000000002492 	101324.9999999886
0.5142642642642637 	300.0000000000111 	1.000000000002168 	101324.9999999885
0.5167667667667663 	299.9999999999989 	1.000000000003816 	101324.9999999888
0.5192692692692688 	299.9999999999299 	1.000000000011497 	101324.9999999894
0.5217717717717714 	299.9999999999469 	0.9999999999941998 	101324.9999999893
0.5242742742742736 	299.9999999999464 	0.9999999999992345 	101324.9999999889
0.5267767767767763 	299.9999999999384 	1.000000000003361 	101324.999999989
0.5292792792792789 	299.9999999999386 	1.000000000001432 	101324.9999999888
0.5317817817817813 	299.999999999916 	0.9999999999998431 	101324.9999999883
0.5342842842842837 	299.9999999999648 	0.9999999999995344 	101324.9999999881
0.5367867867867864 	299.9999999999735 	0.9999999999993715 	101324.999999988
0.5392892892892888 	299.9999999999328 	1.000000000000151 	101324.9999999882
0.5417917917917912 	299.9999999999488 	1.000000000001374 	101324.9999999882
0.5442942942942938 	299.9999999999432 	1.000000000001417 	101324.9999999884
0.5467967967967964 	299.9999999999595 	1.00000000000135 	101324.9999999883
0.5492992992992988 	299.999999999954 	1.000000000001787 	101324.9999999877
0.5518018018018012 	299.9999999999466 	1.000000000002077 	101324.9999999879
0.5543043043043039 	299.9999999999809 	1.000000000002115 	101324.9999999884
0.5568068068068063 	299.9999999999761 	1.000000000002438 	101324.9999999879
0.5593093093093087 	299.9999999999351 	1.000000000004819 	101324.9999999874
0.5618118118118114 	299.9999999999269 	0.9999999999959882 	101324.9999999871
0.5643143143143137 	299.9999999999084 	0.9999999999988916 	101324.9999999878
0.5668168168168163 	299.9999999999426 	1.000000000002453 	101324.9999999882
0.5693193193193188 	299.9999999999957 	1.000000000003319 	101324.9999999884
0.5718218218218213 	300.0000000000308 	1.000000000003049 	101324.9999999886
0.5743243243243239 	300.0000000000327 	1.000000000002415 	101324.9999999886
0.5768268268268262 	300.0000000000168 	1.000000000000338 	101324.9999999884
0.5793293293293288 	299.9999999999695 	1.000000000001742 	101324.999999988
0.5818318318318314 	299.9999999999419 	1.000000000008111 	101324.9999999874
0.5843343343343338 	299.9999999999897 	0.9999999999915677 	101324.999999987
0.5868368368368363 	299.999999999981 	0.9999999999966058 	101324.9999999866
0.5893393393393387 	299.999999999928 	1.000000000001667 	101324.9999999867
0.5918418418418413 	299.9999999999441 	1.000000000000723 	101324.9999999872
0.5943443443443439 	299.9999999999906 	0.9999999999999818 	101324.9999999877
0.5968468468468463 	300.0000000000148 	1.000000000001131 	101324.9999999882
0.5993493493493487 	300.0000000000486 	1.0000000000022 	101324.999999988
0.6018518518518514 	300.0000000000243 	1.000000000003529 	101324.9999999876
0.6043543543543537 	300.0000000000146 	1.00000000000468 	101324.9999999874
0.6068568568568564 	299.9999999999991 	1.000000000003982 	101324.9999999877
0.6093593593593587 	299.9999999999349 	1.000000000002785 	101324.9999999877
0.6118618618618614 	299.9999999999148 	1.000000000001663 	101324.9999999873
0.6143643643643638 	299.9999999999886 	1.000000000000687 	101324.9999999867
0.6168668668668662 	299.9999999999918 	1.000000000000843 	101324.9999999866
0.6193693693693688 	299.9999999999703 	1.00000000000369 	101324.999999987
0.6218718718718714 	299.9999999999815 	1.000000000007422 	101324.9999999871
0.6243743743743737 	299.9999999999671 	0.9999999999992446 	101324.9999999872
0.6268768768768762 	299.9999999999463 	1.000000000001174 	101324.9999999872
0.629379379379379 	299.9999999999665 	1.000000000003466 	101324.9999999872
0.6318818818818812 	299.9999999999842 	1.00000000000375 	101324.9999999873
0.6343843843843838 	300.0000000000184 	1.00000000000389 	101324.9999999874
0.6368868868868864 	300.0000000000028 	1.000000000004558 	101324.9999999875
0.6393893893893888 	299.99999999995 	1.000000000004304 	101324.9999999878
0.6418918918918912 	299.9999999999731 	1.000000000006362 	101324.9999999875
0.6443943943943939 	299.9999999999606 	1.000000000011325 	101324.9999999874
0.6468968968968963 	299.9999999999616 	0.9999999999947461 	101324.9999999868
0.6493993993993988 	299.9999999999634 	0.9999999999991018 	101324.9999999866
0.6519019019019012 	299.9999999999781 	1.000000000004266 	101324.9999999871
0.6544044044044038 	299.9999999999326 	1.000000000004406 	101324.9999999873
0.6569069069069065 	299.9999999999235 	1.00000000000451 	101324.9999999874
0.6594094094094087 	299.9999999999498 	1.000000000005792 	101324.9999999877
0.6619119119119113 	299.9999999999637 	1.000000000006366 	101324.9999999879
0.664414414414414 	299.999999999991 	1.000000000005629 	101324.9999999881
0.6669169169169162 	300.0000000000003 	1.000000000004631 	101324.999999988
0.6694194194194188 	299.9999999999799 	1.000000000003899 	101324.9999999879
0.6719219219219214 	299.9999999999378 	1.000000000003739 	101324.999999988
0.674424424424424 	299.9999999999564 	1.000000000004359 	101324.9999999876
0.6769269269269262 	299.9999999999305 	1.000000000005068 	101324.9999999876
0.679429429429429 	299.9999999999949 	1.00000000000532 	101324.9999999877
0.6819319319319311 	300.0000000000128 	1.000000000006346 	101324.9999999876
0.6844344344344341 	300.0000000000202 	1.00000000000839 	101324.9999999874
0.686936936936936 	300.0000000000186 	1.000000000000709 	101324.9999999871
0.6894394394394392 	300.0000000000158 	1.000000000003431 	101324.9999999873
0.6919419419419413 	300.0000000000036 	1.000000000006166 	101324.9999999872
0.694444444444444 	299.9999999999526 	1.000000000005661 	101324.9999999872
0.6969469469469463 	299.9999999999171 	1.000000000004525 	101324.9999999874
0.6994494494494489 	299.9999999999097 	1.000000000003797 	101324.9999999876
0.7019519519519515 	299.999999999948 	1.000000000003124 	101324.9999999874
0.7044544544544538 	299.9999999999403 	1.000000000004802 	101324.9999999868
0.7069569569569564 	299.9999999999826 	1.000000000008413 	101324.999999987
0.7094594594594589 	299.9999999999701 	0.9999999999944227 	101324.9999999876
0.7119619619619615 	299.9999999999275 	1.000000000001459 	101324.9999999876
0.7144644644644638 	299.9999999999446 	1.000000000005646 	101324.9999999872
0.7169669669669665 	299.999999999937 	1.000000000004005 	101324.999999987
0.7194694694694688 	299.9999999999976 	1.000000000002414 	101324.9999999865
0.7219719719719715 	300.0000000000041 	1.000000000001877 	101324.9999999864
0.7244744744744737 	300.0000000000027 	1.000000000002183 	101324.9999999866
0.7269769769769764 	299.9999999999978 	1.000000000006692 	101324.9999999873
0.7294794794794791 	299.9999999999924 	1.000000000011344 	101324.9999999877
0.7319819819819813 	299.9999999999791 	0.9999999999956453 	101324.9999999879
0.7344844844844839 	299.999999999922 	1.000000000000107 	101324.9999999878
0.7369869869869864 	299.9999999999197 	1.000000000004376 	101324.9999999874
0.739489489489489 	299.9999999999407 	1.000000000004051 	101324.9999999872
0.7419919919919914 	299.999999999939 	1.000000000003638 	101324.9999999867
0.7444944944944939 	299.9999999999502 	1.000000000005069 	101324.9999999868
0.7469969969969963 	299.9999999999638 	1.000000000007533 	101324.999999987
0.7494994994994989 	299.9999999999357 	1.000000000004891 	101324.999999987
0.7520020020020015 	299.9999999999435 	1.000000000011813 	101324.999999987
0.7545045045045039 	299.9999999999428 	0.9999999999982188 	101324.9999999869
0.7570070070070062 	299.9999999999339 	1.000000000001826 	101324.9999999867
0.7595095095095092 	299.9999999999408 	1.000000000005179 	101324.9999999869
0.7620120120120112 	299.999999999981 	1.000000000004696 	101324.9999999876
0.7645145145145138 	299.9999999999809 	1.000000000003636 	101324.999999988
0.7670170170170165 	299.9999999999423 	1.000000000007584 	101324.9999999876
0.7695195195195191 	299.9999999999133 	1.000000000010475 	101324.9999999868
0.7720220220220213 	299.9999999999259 	0.9999999999953576 	101324.9999999868
0.7745245245245239 	299.9999999999177 	1.000000000001226 	101324.9999999874
0.7770270270270263 	299.9999999999204 	1.000000000005362 	101324.9999999873
0.779529529529529 	299.9999999999485 	1.000000000003874 	101324.9999999873
0.7820320320320313 	299.9999999999513 	1.000000000002259 	101324.9999999874
0.784534534534534 	299.9999999999848 	1.000000000001636 	101324.9999999872
0.7870370370370364 	299.9999999999833 	1.000000000001255 	101324.9999999874
0.7895395395395389 	299.9999999999709 	1.000000000001814 	101324.9999999877
0.7920420420420413 	299.9999999999746 	1.000000000002808 	101324.9999999877
0.794544544544544 	299.9999999999748 	1.00000000000739 	101324.9999999875
0.7970470470470463 	300.0000000000033 	1.000000000011379 	101324.9999999878
0.799549549549549 	300.0000000000094 	0.9999999999964219 	101324.9999999882
0.8020520520520515 	299.9999999999882 	1.000000000000186 	101324.9999999884
0.8045545545545539 	299.9999999999393 	1.000000000004047 	101324.9999999879
0.8070570570570563 	299.9999999999478 	1.000000000003646 	101324.999999988
0.8095595595595589 	299.9999999999424 	1.000000000003863 	101324.999999988
0.8120620620620614 	299.99999999995 	1.000000000004766 	101324.9999999878
0.8145645645645638 	300.0000000000018 	1.000000000004483 	101324.9999999876
0.8170670670670666 	300.0000000000253 	1.000000000008086 	101324.9999999875
0.8195695695695689 	300.0000000000048 	1.000000000011441 	101324.9999999874
0.8220720720720714 	299.9999999999519 	0.9999999999979186 	101324.9999999871
0.8245745745745739 	299.9999999999534 	1.00000000000241 	101324.9999999867
0.8270770770770765 	299.99999999996 	1.000000000006148 	101324.9999999867
0.8295795795795788 	299.9999999999566 	1.000000000006557 	101324.999999987
0.8320820820820815 	299.999999999996 	1.000000000006671 	101324.9999999876
0.834584584584584 	299.9999999999995 	1.000000000009525 	101324.9999999878
0.8370870870870865 	299.9999999999687 	1.000000000010994 	101324.9999999878
0.8395895895895891 	299.99999999993 	1.000000000002891 	101324.9999999874
0.8420920920920915 	299.9999999999523 	1.000000000004612 	101324.9999999866
0.844594594594594 	299.9999999999518 	1.000000000005975 	101324.9999999863
0.8470970970970964 	299.9999999999484 	1.000000000005291 	101324.9999999871
0.8495995995995991 	299.9999999999869 	1.000000000004686 	101324.9999999875
0.8521021021021015 	299.9999999999845 	1.000000000005329 	101324.9999999878
0.8546046046046039 	299.9999999999699 	1.000000000005689 	101324.9999999877
0.8571071071071066 	299.9999999999893 	1.000000000009526 	101324.9999999874
0.8596096096096089 	299.9999999999764 	1.000000000010824 	101324.9999999875
0.8621121121121116 	299.9999999999599 	0.9999999999965562 	101324.9999999876
0.8646146146146139 	299.9999999999962 	1.000000000002184 	101324.9999999871
0.8671171171171166 	299.9999999999729 	1.000000000007329 	101324.9999999868
0.8696196196196189 	299.9999999999319 	1.000000000007876 	101324.9999999867
0.8721221221221216 	299.9999999999628 	1.000000000007679 	101324.9999999872
0.874624624624624 	299.9999999999981 	1.000000000007232 	101324.9999999875
0.8771271271271264 	299.9999999999965 	1.000000000006046 	101324.9999999876
0.879629629629629 	299.9999999999974 	1.000000000009505 	101324.9999999878
0.8821321321321317 	299.999999999983 	1.000000000010784 	101324.9999999877
0.8846346346346339 	299.9999999999393 	0.9999999999971894 	101324.9999999875
0.8871371371371364 	299.9999999999386 	1.000000000002587 	101324.999999987
0.8896396396396391 	299.9999999999541 	1.000000000006373 	101324.9999999867
0.8921421421421414 	299.9999999999576 	1.000000000005683 	101324.9999999866
0.8946446446446441 	299.9999999999712 	1.000000000004907 	101324.9999999865
0.8971471471471464 	299.9999999999919 	1.000000000007623 	101324.9999999866
0.8996496496496489 	299.999999999986 	1.000000000008745 	101324.999999987
0.9021521521521517 	299.9999999999823 	1.000000000002141 	101324.9999999875
0.9046546546546541 	299.9999999999944 	1.000000000004549 	101324.9999999877
0.9071571571571564 	299.9999999999654 	1.000000000006265 	101324.9999999874
0.9096596596596589 	299.9999999999396 	1.000000000006228 	101324.9999999871
0.9121621621621616 	299.9999999999764 	1.000000000006632 	101324.9999999874
0.9146646646646639 	299.9999999999713 	1.000000000007232 	101324.9999999878
0.9171671671671666 	299.9999999999475 	1.00000000000692 	101324.9999999879
0.9196696696696689 	299.9999999999745 	1.000000000011087 	101324.9999999879
0.9221721721721714 	299.9999999999753 	1.000000000012182 	101324.9999999881
0.9246746746746741 	299.9999999999346 	0.9999999999994607 	101324.9999999882
0.9271771771771765 	299.9999999999497 	1.000000000004721 	101324.9999999877
0.9296796796796791 	299.9999999999735 	1.000000000008306 	101324.9999999873
0.9321821821821816 	299.9999999999596 	1.000000000007596 	101324.999999987
0.9346846846846838 	299.9999999999466 	1.00000000000744 	101324.9999999871
0.9371871871871866 	299.9999999999877 	1.000000000007252 	101324.9999999874
0.9396896896896891 	300.0000000000019 	1.000000000005852 	101324.9999999874
0.9421921921921914 	299.999999999999 	1.000000000009633 	101324.9999999874
0.9446946946946939 	299.999999999986 	1.00000000000997 	101324.9999999875
0.9471971971971965 	299.9999999999519 	0.9999999999971456 	101324.9999999875
0.9496996996996991 	299.9999999999444 	1.000000000002574 	101324.9999999876
0.9522022022022016 	299.9999999999715 	1.000000000006312 	101324.9999999877
0.9547047047047038 	299.9999999999911 	1.00000000000637 	101324.9999999881
0.9572072072072064 	299.9999999999856 	1.000000000006645 	101324.9999999885
0.9597097097097093 	299.9999999999696 	1.000000000009385 	101324.9999999883
0.9622122122122114 	299.9999999999534 	1.000000000009418 	101324.9999999881
0.964714714714714 	299.9999999999415 	1.000000000002973 	101324.9999999877
0.9672172172172167 	299.9999999999296 	1.000000000004677 	101324.9999999874
0.969719719719719 	299.9999999999532 	1.000000000005526 	101324.9999999871
0.9722222222222214 	299.9999999999695 	1.0000000000051 	101324.9999999868
0.9747247247247239 	299.9999999999691 	1.000000000005468 	101324.9999999869
0.9772272272272267 	299.999999999994 	1.000000000007501 	101324.999999987
0.9797297297297292 	299.9999999999825 	1.000000000008379 	101324.9999999872
0.9822322322322313 	299.9999999999733 	1.000000000013319 	101324.9999999875
0.9847347347347344 	299.9999999999707 	1.000000000012858 	101324.9999999878
0.9872372372372363 	299.9999999999344 	0.9999999999997748 	101324.9999999877
0.9897397397397389 	299.999999999929 	1.000000000004425 	101324.9999999873
0.9922422422422417 	299.9999999999267 	1.000000000007326 	101324.999999987
0.9947447447447441 	299.9999999999554 	1.000000000006041 	101324.9999999867
0.9972472472472468 	299.9999999999687 	1.00000000000529 	101324.9999999867
0.999749749749749 	299.9999999999636 	1.000000000005404 	101324.9999999866
1.002252252252252 	299.9999999999687 	1.000000000005801 	101324.9999999866
1.004754754754754 	299.9999999999873 	1.000000000011738 	101324.9999999867
1.007257257257256 	299.9999999999788 	1.000000000011658 	101324.999999987
1.009759759759759 	299.9999999999659 	0.9999999999990479 	101324.9999999868
1.012262262262261 	299.9999999999646 	1.000000000004016 	101324.9999999864
1.014764764764764 	299.9999999999408 	1.000000000007647 	101324.9999999865
1.017267267267267 	299.9999999999203 	1.000000000006994 	101324.9999999869
1.019769769769769 	299.9999999999482 	1.000000000006039 	101324.9999999871
1.022272272272272 	299.9999999999757 	1.000000000009157 	101324.9999999869
1.024774774774774 	299.9999999999847 	1.000000000010039 	101324.999999987
1.027277277277277 	299.9999999999849 	1.000000000004483 	101324.9999999872
1.029779779779779 	300.0000000000083 	1.000000000006378 	101324.9999999873
1.032282282282282 	300.0000000000106 	1.000000000007456 	101324.9999999873
1.034784784784784 	300.0000000000068 	1.000000000007072 	101324.9999999875
1.037287287287286 	299.9999999999857 	1.000000000007146 	101324.9999999874
1.039789789789789 	299.9999999999797 	1.000000000007512 	101324.9999999872
1.042292292292291 	300.0000000000102 	1.000000000007179 	101324.9999999871
1.044794794794794 	300.000000000036 	1.000000000012597 	101324.9999999869
1.047297297297296 	300.0000000000492 	1.000000000011452 	101324.9999999867
1.049799799799799 	300.0000000000209 	0.9999999999997644 	101324.9999999866
1.052302302302302 	299.9999999999841 	1.000000000005763 	101324.9999999866
1.054804804804804 	299.9999999999491 	1.000000000010278 	101324.999999987
1.057307307307306 	299.9999999999241 	1.000000000009813 	101324.999999987
1.059809809809809 	299.9999999999465 	1.000000000008717 	101324.9999999868
1.062312312312312 	299.9999999999557 	1.000000000007886 	101324.999999987
1.064814814814814 	299.9999999999567 	1.000000000006651 	101324.9999999873
1.067317317317317 	299.9999999999351 	1.000000000012035 	101324.9999999873
1.069819819819819 	299.9999999999183 	1.000000000010927 	101324.9999999871
1.072322322322321 	299.9999999999669 	0.9999999999999409 	101324.9999999872
1.074824824824824 	300.0000000000146 	1.000000000006189 	101324.9999999874
1.077327327327327 	300.0000000000363 	1.000000000010422 	101324.9999999874
1.079829829829829 	300.0000000000506 	1.000000000010019 	101324.9999999877
1.082332332332332 	300.0000000000216 	1.000000000009013 	101324.9999999879
1.084834834834834 	299.9999999999841 	1.000000000014788 	101324.9999999876
1.087337337337337 	299.9999999999403 	1.000000000012469 	101324.9999999872
1.089839839839839 	299.9999999999109 	1.000000000000532 	101324.9999999868
1.092342342342342 	299.9999999999384 	1.00000000000554 	101324.9999999869
1.094844844844844 	299.9999999999467 	1.000000000014283 	101324.9999999869
1.097347347347347 	299.9999999999262 	1.000000000011232 	101324.9999999872
1.099849849849849 	299.9999999999159 	0.9999999999993529 	101324.9999999874
1.102352352352352 	299.9999999999442 	1.000000000004665 	101324.9999999873
1.104854854854854 	299.9999999999712 	1.000000000008285 	101324.9999999873
1.107357357357357 	299.9999999999592 	1.000000000008629 	101324.9999999873
1.109859859859859 	299.9999999999456 	1.00000000000829 	101324.9999999869
1.112362362362362 	299.9999999999918 	1.000000000013773 	101324.9999999868
1.114864864864865 	300.0000000000059 	1.000000000011579 	101324.9999999871
1.117367367367367 	299.9999999999669 	1.000000000000212 	101324.9999999875
1.119869869869869 	299.999999999928 	1.000000000004341 	101324.9999999873
1.122372372372372 	299.9999999999452 	1.000000000006361 	101324.9999999867
1.124874874874874 	299.9999999999534 	1.000000000005072 	101324.9999999863
1.127377377377377 	299.9999999999465 	1.000000000004853 	101324.9999999866
1.129879879879879 	299.9999999999765 	1.000000000006239 	101324.9999999873
1.132382382382382 	300.0000000000277 	1.00000000000664 	101324.9999999875
1.134884884884884 	300.0000000000241 	1.000000000013001 	101324.9999999872
1.137387387387387 	300.0000000000169 	1.000000000010433 	101324.999999987
1.139889889889889 	299.9999999999739 	0.9999999999991835 	101324.9999999874
1.142392392392392 	299.999999999949 	1.000000000005071 	101324.9999999876
1.144894894894894 	299.9999999999903 	1.000000000009476 	101324.9999999877
1.147397397397397 	299.9999999999955 	1.000000000009542 	101324.999999988
1.149899899899899 	299.9999999999591 	1.000000000009028 	101324.999999988
1.152402402402402 	299.999999999935 	1.000000000008644 	101324.9999999879
1.154904904904904 	299.9999999999526 	1.000000000007285 	101324.9999999872
1.157407407407407 	299.9999999999554 	1.000000000012407 	101324.9999999864
1.159909909909909 	299.9999999999321 	1.000000000009211 	101324.9999999862
1.162412412412412 	299.9999999999239 	0.9999999999990492 	101324.9999999866
1.164914914914914 	299.9999999999464 	1.000000000005475 	101324.9999999869
1.167417417417417 	299.9999999999478 	1.000000000009315 	101324.999999987
1.169919919919919 	299.9999999999851 	1.000000000008176 	101324.9999999872
1.172422422422422 	300.0000000000294 	1.000000000006931 	101324.9999999872
1.174924924924925 	300.0000000000167 	1.000000000013703 	101324.9999999868
1.177427427427427 	299.9999999999803 	1.000000000010392 	101324.9999999864
1.179929929929929 	299.9999999999943 	0.9999999999998542 	101324.9999999864
1.182432432432432 	300.0000000000355 	1.000000000005367 	101324.9999999865
1.184934934934934 	300.0000000000158 	1.000000000008434 	101324.9999999867
1.187437437437437 	299.9999999999866 	1.000000000008354 	101324.9999999869
1.189939939939939 	299.9999999999771 	1.000000000008607 	101324.999999987
1.192442442442442 	299.9999999999464 	1.000000000009594 	101324.9999999873
1.194944944944944 	299.9999999999263 	1.000000000009064 	101324.9999999873
1.197447447447447 	299.9999999999752 	1.000000000014464 	101324.999999987
1.199949949949949 	300.0000000000161 	1.000000000010211 	101324.9999999869
1.202452452452452 	299.9999999999764 	0.9999999999996303 	101324.9999999866
1.204954954954955 	299.999999999952 	1.000000000004973 	101324.9999999864
1.207457457457457 	299.9999999999653 	1.00000000000758 	101324.9999999866
1.20995995995996 	299.9999999999719 	1.000000000006203 	101324.9999999866
1.212462462462462 	299.9999999999806 	1.000000000005806 	101324.9999999864
1.214964964964964 	299.9999999999847 	1.000000000006529 	101324.9999999861
1.217467467467467 	299.9999999999867 	1.000000000006162 	101324.9999999859
1.219969969969969 	299.9999999999585 	1.000000000012479 	101324.9999999858
1.222472472472472 	299.999999999981 	1.000000000008616 	101324.999999986
1.224974974974975 	300.000000000021 	0.999999999999587 	101324.9999999865
1.227477477477477 	299.9999999999959 	1.000000000005716 	101324.9999999868
1.229979979979979 	299.9999999999828 	1.000000000008798 	101324.9999999868
1.232482482482482 	299.9999999999566 	1.00000000000799 	101324.9999999866
1.234984984984984 	299.9999999999461 	1.000000000006896 	101324.9999999864
1.237487487487487 	299.9999999999719 	1.000000000014343 	101324.9999999866
1.239989989989989 	299.9999999999898 	1.000000000010971 	101324.999999987
1.242492492492492 	300.0000000000148 	1.000000000001189 	101324.999999987
1.244994994994994 	299.9999999999884 	1.000000000006112 	101324.9999999867
1.247497497497497 	299.9999999999905 	1.000000000008307 	101324.9999999864
1.249999999999999 	299.9999999999484 	1.000000000007304 	101324.9999999863
