-1.25 	300 	0.07302422601078586 	101354.3892626146
-1.247497497497497 	300.0291307327065 	0.08139473304192367 	101359.9712832318
-1.244994994994995 	300.033342398579 	0.09649344808114826 	101364.4171491505
-1.242492492492492 	300.0366461459889 	0.106565320578391 	101368.328447011
-1.23998998998999 	300.0392847162838 	0.1133940626951982 	101371.4493911962
-1.237487487487487 	300.0411403549605 	0.1189118063128594 	101373.6438568035
-1.234984984984985 	300.0422130257159 	0.1220592431493809 	101374.9124839539
-1.232482482482482 	300.0425984798665 	0.1231460870067589 	101375.3683558627
-1.22997997997998 	300.0422181403451 	0.1220076651684932 	101374.9185877894
-1.227477477477477 	300.0410063800225 	0.1185382306825248 	101373.4856745613
-1.224974974974975 	300.0390105303173 	0.1127588359960553 	101371.1255334306
-1.222472472472472 	300.0362825174296 	0.1048461560054856 	101367.8995565919
-1.21996996996997 	300.0328629558867 	0.09493313006344033 	101363.855877416
-1.217467467467467 	300.028834753916 	0.0833094142490531 	101359.0925979382
-1.214964964964965 	300.0243199616437 	0.07025380105754313 	101353.75409923
-1.212462462462462 	300.019391247064 	0.05598919575772349 	101347.9263823749
-1.20995995995996 	300.0141127527974 	0.04076544779338315 	101341.6853476404
-1.207457457457457 	300.0085958020726 	0.02480634452549204 	101335.1626500849
-1.204954954954955 	300.0029262708094 	0.008431665902166704 	101328.4598572529
-1.202452452452452 	299.9971816969972 	0.008637099353047297 	101321.6686622861
-1.19994994994995 	299.9914769808132 	0.02469908849642215 	101314.9249121107
-1.197447447447447 	299.9859281041163 	0.04075859255924488 	101308.3656683126
-1.194944944944945 	299.9806148182202 	0.056144445785929 	101302.0851889015
-1.192442442442442 	299.9756120786719 	0.07057864578728709 	101296.1720463904
-1.18993993993994 	299.9710570878308 	0.08371043155879836 	101290.7883134667
-1.187437437437437 	299.9670766138613 	0.09524741547658178 	101286.0837933625
-1.184934934934935 	299.9637274533911 	0.104907911701076 	101282.1255207907
-1.182432432432432 	299.9610520569742 	0.1126015774116839 	101278.9636091137
-1.17992992992993 	299.9590914051487 	0.1182569066169932 	101276.6464284849
-1.177427427427427 	299.9578553484733 	0.1218248559007577 	101275.1855514392
-1.174924924924925 	299.957385156916 	0.123213117582488 	101274.6298515562
-1.172422422422422 	299.9577287123107 	0.1222348782647545 	101275.0358239984
-1.16991991991992 	299.9588802209693 	0.1188892049345545 	101276.3965708577
-1.167417417417417 	299.9608120008741 	0.1132707114460338 	101278.679473986
-1.164914914914915 	299.9634907197799 	0.1055684257230807 	101281.8451631112
-1.162412412412412 	299.9668290900224 	0.09596000433132165 	101285.7905575979
-1.15990990990991 	299.9707450756521 	0.08458247509719474 	101290.418751368
-1.157407407407407 	299.9751744573997 	0.07172765843445385 	101295.653892343
-1.154904904904904 	299.9800517079321 	0.05758172563280197 	101301.4186308488
-1.152402402402403 	299.9853076076581 	0.04241536193203733 	101307.6311860216
-1.1498998998999 	299.9908358651759 	0.02655805204778116 	101314.1659834957
-1.147397397397397 	299.9964763327272 	0.01021129043533753 	101320.8337544407
-1.144894894894895 	300.0021421165923 	0.008655224620388879 	101327.5317535698
-1.142392392392392 	300.0077998511921 	0.02259126968079873 	101334.2205765885
-1.13988988988989 	300.0133634522944 	0.03868103597693744 	101340.7984286748
-1.137387387387387 	300.0187186509802 	0.0541321596787824 	101347.1301862836
-1.134884884884885 	300.0237313602155 	0.06861930257489711 	101353.0572790966
-1.132382382382382 	300.0282838317966 	0.08179075526386455 	101358.4403888401
-1.12987987987988 	300.0323014707529 	0.09339112681056155 	101363.1912699364
-1.127377377377377 	300.0357319601447 	0.1033116929878238 	101367.2479825827
-1.124874874874875 	300.0385271937295 	0.1113779983936079 	101370.5535703626
-1.122372372372372 	300.0406335369851 	0.1174534517476431 	101373.044573879
-1.11986986986987 	300.0419895410083 	0.121369769941193 	101374.6482548928
-1.117367367367367 	300.0425517233225 	0.1229790196076009 	101375.3131474867
-1.114864864864865 	300.0423036031387 	0.1222484152497772 	101375.0197413619
-1.112362362362362 	300.0412509026214 	0.1192007866736665 	101373.7749127017
-1.10985985985986 	300.0394315456176 	0.1139573509387259 	101371.6234812617
-1.107357357357357 	300.0368945006767 	0.1066278455286652 	101368.6233160773
-1.104854854854855 	300.0336791596272 	0.09732840080202984 	101364.821107521
-1.102352352352353 	300.0298369964079 	0.08621724986944335 	101360.2777812672
-1.09984984984985 	300.0254372989564 	0.07347720167818646 	101355.0753390747
-1.097347347347347 	300.0205628532157 	0.05940194222261244 	101349.3117399976
-1.094844844844845 	300.0153256352356 	0.04427986370931165 	101343.1194403765
-1.092342342342342 	300.0098396574132 	0.02839831548572085 	101336.6332981875
-1.08983983983984 	300.0041994002615 	0.01207474169391961 	101329.9650478957
-1.087337337337337 	299.9984888222481 	0.008723889689568123 	101323.2139761601
-1.084834834834835 	299.9927764667833 	0.02097252069003796 	101316.4611152242
-1.082332332332332 	299.9871571199509 	0.03718824003882719 	101309.8185081591
-1.07982982982983 	299.9817579113855 	0.05276642288521127 	101303.4364088562
-1.077327327327327 	299.9767060789883 	0.06737278135302445 	101297.4651679441
-1.074824824824825 	299.9721031887011 	0.08068153420505925 	101292.0247854952
-1.072322322322323 	299.9680247774095 	0.09246054474678918 	101287.2044711508
-1.06981981981982 	299.9645312576304 	0.1025694163644748 	101283.0755647054
-1.067317317317317 	299.9616738175463 	0.1108366753931938 	101279.6984995814
-1.064814814814815 	299.9595105357795 	0.1170840775786492 	101277.1418339695
-1.062312312312312 	299.9581076954781 	0.1211254848489071 	101275.4838400919
-1.05980980980981 	299.9574946238287 	0.1228708336230198 	101274.7592750063
-1.057307307307307 	299.9576747863006 	0.1223318230186733 	101274.9721633661
-1.054804804804805 	299.9586557701438 	0.1194918114216697 	101276.1313978831
-1.052302302302302 	299.9604335311201 	0.1143604253883821 	101278.2322713664
-1.0497997997998 	299.9629631571337 	0.1070416452052926 	101281.2217495834
-1.047297297297297 	299.9661495603811 	0.09783684658749058 	101284.9875149049
-1.044794794794795 	299.9698768085129 	0.08707384071105854 	101289.3926185443
-1.042292292292292 	299.9740909529353 	0.07486524177073006 	101294.3733328191
-1.03978978978979 	299.9788009869069 	0.06122232285930155 	101299.9403569606
-1.037287287287287 	299.9839817926389 	0.04625362779315322 	101306.0640796888
-1.034784784784785 	299.9895025013776 	0.03033786265755295 	101312.5898754854
-1.032282282282283 	299.9951396115867 	0.01407813010308854 	101319.2536010309
-1.02977977977978 	300.0007091050274 	0.008110549640390746 	101325.8377073635
-1.027277277277277 	300.006189445833 	0.01796143378010788 	101332.3167108687
-1.024774774774775 	300.0116695854935 	0.03384753918132686 	101338.7957775251
-1.022272272272272 	300.0171690264868 	0.04971520340123782 	101345.2979666541
-1.01976976976977 	300.0225159963576 	0.06508324641928484 	101351.6201961433
-1.017267267267267 	300.0273943070728 	0.07909888688783692 	101357.388568693
-1.014764764764765 	300.0315133942992 	0.09098481757500301 	101362.2593982831
-1.012262262262262 	300.0347735146267 	0.100470249667977 	101366.114630261
-1.00975975975976 	300.0373024630862 	0.1078797091074815 	101369.1052910768
-1.007257257257257 	300.0393301756626 	0.1138052620740337 	101371.5032427491
-1.004754754754755 	300.0409966893213 	0.1186054925969332 	101373.4740872296
-1.002252252252252 	300.0422328474728 	0.1220844074480458 	101374.9360284346
-0.9997497497497498 	300.0427781448284 	0.1235299429672398 	101375.5809440318
-0.9972472472472473 	300.0423027133399 	0.1220416017500969 	101375.0187150898
-0.9947447447447449 	300.0405597169953 	0.1169507595644242 	101372.9576220239
-0.9922422422422421 	300.0375036039936 	0.1081466153223373 	101369.34371625
-0.9897397397397399 	300.0333321385657 	0.09619180128440338 	101364.4108729989
-0.9872372372372376 	300.0284429572739 	0.08219964856498289 	101358.6294725569
-0.9847347347347346 	300.0233236025711 	0.067531170868255 	101352.5761049887
-0.9822322322322323 	300.0184203033452 	0.05344285229537539 	101346.77842154
-0.9797297297297296 	300.0140476410581 	0.04083966059590143 	101341.6083416592
-0.9772272272272275 	300.0103692291514 	0.03020633027866329 	101337.2592472032
-0.9747247247247248 	300.0074238449059 	0.02166894039897108 	101333.7769165028
-0.9722222222222224 	300.0051646648282 	0.01510399673596362 	101331.1059348423
-0.9697197197197196 	300.0034968953771 	0.0102460615777065 	101329.1341919274
-0.9672172172172175 	300.0023076298853 	0.00677406066471455 	101327.7281795224
-0.9647147147147147 	300.0014860731322 	0.004370351259170135 	101326.7568973604
-0.9622122122122124 	300.0009349627406 	0.002754539627251257 	101326.105351443
-0.9597097097097099 	300.0005752661559 	0.001697806254926574 	101325.6801036141
-0.9572072072072073 	300.0003464670074 	0.001024312552675248 	101325.4096081036
-0.9547047047047047 	300.0002044256724 	0.0006054031431842915 	101325.2416810424
-0.9522022022022023 	300.0001182551134 	0.000350796943419033 	101325.139806611
-0.9496996996996998 	300.0000671148543 	0.0001994204389477447 	101325.079346378
-0.9471971971971973 	300.0000373947817 	0.0001112925527629531 	101325.0442099546
-0.9446946946946947 	300.0000204670192 	6.101039132390008e-05 	101325.0241971833
-0.9421921921921923 	300.0000110100715 	3.287174878238346e-05 	101325.0130166999
-0.93968968968969 	300.0000058242576 	1.741592135518338e-05 	101325.0068857497
-0.9371871871871872 	300.0000030311814 	9.077855117656692e-06 	101325.003583636
-0.9346846846846848 	300.0000015527311 	4.657237009057806e-06 	101325.0018357501
-0.9321821821821823 	300.0000007832205 	2.352690216981519e-06 	101325.0009259826
-0.9296796796796799 	300.0000003891831 	1.170752338002563e-06 	101325.0004601117
-0.9271771771771771 	300.0000001905611 	5.741045223758697e-07 	101325.0002252974
-0.9246746746746748 	300.0000000919762 	2.775224171061443e-07 	101325.0001087511
-0.9221721721721724 	300.0000000437892 	1.322905270790912e-07 	101325.000051765
-0.9196696696696698 	300.0000000205576 	6.220590574668909e-08 	101325.0000243049
-0.9171671671671672 	300.0000000095046 	2.886204547686913e-08 	101325.0000112595
-0.9146646646646649 	300.0000000043518 	1.321801610388736e-08 	101325.0000051474
-0.9121621621621623 	300.0000000019745 	5.97687434068125e-09 	101325.0000023222
-0.9096596596596597 	300.0000000008602 	2.668755484493799e-09 	101325.0000010335
-0.9071571571571573 	300.0000000003796 	1.176847136173776e-09 	101325.0000004533
-0.9046546546546547 	300.0000000001754 	5.123657632098596e-10 	101325.0000001955
-0.9021521521521524 	300.0000000000587 	2.204955759261037e-10 	101325.0000000823
-0.8996496496496498 	300.0000000000247 	9.258988953171057e-11 	101325.0000000332
-0.8971471471471473 	300.0000000000189 	3.823784007336626e-11 	101325.0000000122
-0.894644644644645 	300.000000000009 	1.599911080544676e-11 	101325.0000000033
-0.892142142142142 	300.0000000000064 	6.345965234470149e-12 	101324.9999999996
-0.8896396396396397 	300.0000000000076 	4.295783826560519e-12 	101324.9999999981
-0.8871371371371374 	299.9999999999826 	1.730653901326799e-12 	101324.9999999975
-0.8846346346346349 	299.9999999999744 	2.78877727030411e-12 	101324.9999999973
-0.8821321321321324 	299.9999999999758 	2.741757421963965e-12 	101324.9999999972
-0.8796296296296297 	299.9999999999781 	3.116678193518436e-12 	101324.9999999971
-0.8771271271271271 	299.9999999999802 	2.885712694837789e-12 	101324.9999999971
-0.8746246246246248 	299.9999999999937 	2.911978035455971e-12 	101324.9999999972
-0.8721221221221224 	300.0000000000009 	1.915852575754239e-12 	101324.9999999971
-0.8696196196196196 	299.9999999999872 	1.957111020390505e-12 	101324.9999999971
-0.8671171171171175 	299.9999999999961 	1.433627409040382e-12 	101324.9999999971
-0.8646146146146148 	299.9999999999752 	1.516584438574037e-12 	101324.9999999971
-0.8621121121121121 	299.9999999999899 	8.650506619177256e-13 	101324.999999997
-0.8596096096096097 	300.0000000000105 	9.676824254540886e-13 	101324.9999999969
-0.857107107107107 	299.9999999999832 	1.165884121602135e-12 	101324.9999999969
-0.8546046046046049 	299.9999999999937 	1.327231068030283e-12 	101324.9999999971
-0.8521021021021022 	300.0000000000035 	1.106909914040018e-12 	101324.999999997
-0.8495995995995997 	299.9999999999976 	1.879498045795262e-12 	101324.999999997
-0.8470970970970974 	299.99999999997 	1.557261055374097e-12 	101324.9999999969
-0.8445945945945946 	299.9999999999799 	1.950721600141259e-12 	101324.9999999967
-0.8420920920920922 	300.0000000000034 	1.072126564345232e-12 	101324.9999999967
-0.8395895895895897 	299.999999999996 	2.787568445858012e-12 	101324.9999999967
-0.8370870870870872 	299.9999999999982 	1.504819524908561e-12 	101324.9999999964
-0.8345845845845846 	300.0000000000035 	2.165712147085447e-12 	101324.9999999962
-0.8320820820820823 	299.9999999999818 	1.486157005345696e-12 	101324.9999999963
-0.8295795795795798 	299.9999999999613 	1.052729706743179e-12 	101324.9999999964
-0.8270770770770772 	299.9999999999786 	1.248436614415291e-12 	101324.9999999965
-0.8245745745745746 	299.9999999999677 	8.433125455145974e-13 	101324.9999999967
-0.8220720720720721 	299.999999999976 	6.416135835363478e-13 	101324.999999997
-0.8195695695695699 	299.9999999999945 	1.093877227935797e-12 	101324.9999999971
-0.817067067067067 	299.9999999999802 	1.262263016063068e-12 	101324.9999999972
-0.8145645645645651 	299.9999999999673 	1.718661444365923e-12 	101324.9999999972
-0.8120620620620621 	299.9999999999916 	9.90775405966172e-13 	101324.9999999971
-0.8095595595595597 	300.000000000001 	4.675216194770631e-13 	101324.9999999968
-0.8070570570570572 	299.9999999999737 	3.866684473875655e-13 	101324.9999999967
-0.8045545545545546 	299.9999999999728 	7.150877162875995e-13 	101324.9999999967
-0.8020520520520523 	299.9999999999946 	1.651217017360841e-12 	101324.9999999966
-0.7995495495495494 	300.0000000000099 	2.265760572921795e-12 	101324.9999999967
-0.7970470470470474 	299.9999999999993 	3.063451561505514e-12 	101324.9999999966
-0.7945445445445446 	300.0000000000014 	2.94501497286179e-12 	101324.9999999966
-0.7920420420420423 	300.000000000005 	2.919729339480823e-12 	101324.9999999966
-0.7895395395395397 	300.0000000000038 	3.539480636143489e-12 	101324.9999999967
-0.7870370370370371 	300.0000000000006 	2.521951544559577e-12 	101324.9999999968
-0.7845345345345348 	299.9999999999853 	3.167368748759106e-12 	101324.9999999965
-0.7820320320320323 	299.9999999999835 	2.263593073253992e-12 	101324.9999999963
-0.7795295295295296 	299.9999999999654 	3.439310111171538e-12 	101324.9999999964
-0.7770270270270272 	299.9999999999577 	3.064816214045136e-12 	101324.9999999964
-0.7745245245245247 	299.9999999999562 	2.791718340199489e-12 	101324.9999999962
-0.7720220220220222 	299.9999999999763 	2.537116576377057e-12 	101324.9999999962
-0.7695195195195199 	299.999999999977 	2.325019672732421e-12 	101324.9999999963
-0.767017017017017 	299.9999999999883 	2.833082988055205e-12 	101324.9999999962
-0.7645145145145147 	300.0000000000043 	3.016043206279733e-12 	101324.9999999962
-0.7620120120120122 	300.0000000000082 	3.682236607865803e-12 	101324.9999999963
-0.7595095095095097 	299.9999999999671 	4.135512348907638e-12 	101324.9999999965
-0.7570070070070072 	299.999999999969 	4.891159837576133e-12 	101324.9999999966
-0.7545045045045048 	299.9999999999916 	4.971236087291433e-12 	101324.9999999965
-0.7520020020020022 	299.9999999999816 	4.213481192177666e-12 	101324.9999999964
-0.7494994994994997 	299.9999999999787 	3.327429176278621e-12 	101324.9999999961
-0.7469969969969972 	299.9999999999973 	3.066002198114718e-12 	101324.999999996
-0.7444944944944945 	299.9999999999935 	1.433911879760674e-12 	101324.9999999959
-0.7419919919919924 	299.999999999992 	1.714796239178905e-12 	101324.9999999959
-0.7394894894894897 	299.9999999999779 	1.077706417605138e-12 	101324.9999999958
-0.7369869869869872 	299.9999999999926 	1.03926352588076e-12 	101324.9999999957
-0.7344844844844846 	299.9999999999833 	1.703477921766258e-12 	101324.9999999956
-0.7319819819819822 	300.0000000000019 	1.024050090608123e-12 	101324.9999999957
-0.7294794794794797 	299.9999999999987 	1.460908139778303e-12 	101324.999999996
-0.7269769769769773 	300.0000000000039 	1.142917755905107e-12 	101324.9999999961
-0.7244744744744747 	300.0000000000055 	1.041317605563266e-12 	101324.9999999962
-0.721971971971972 	299.9999999999765 	9.085098678705128e-13 	101324.9999999964
-0.7194694694694695 	299.9999999999914 	1.128335144642443e-12 	101324.9999999966
-0.7169669669669674 	299.9999999999693 	7.515430371725786e-13 	101324.9999999966
-0.7144644644644647 	299.9999999999885 	6.423797242786357e-13 	101324.9999999966
-0.711961961961962 	300.0000000000048 	7.788100229610007e-13 	101324.9999999965
-0.7094594594594597 	300.0000000000065 	6.497176766218829e-13 	101324.9999999964
-0.7069569569569573 	300.0000000000108 	8.675869388203991e-13 	101324.9999999963
-0.7044544544544545 	300.0000000000125 	6.9226665668877e-13 	101324.9999999963
-0.7019519519519523 	300.0000000000036 	3.465216111794541e-13 	101324.9999999964
-0.6994494494494495 	299.9999999999668 	1.459353472786027e-13 	101324.9999999964
-0.6969469469469471 	299.9999999999718 	6.176766199101383e-13 	101324.9999999964
-0.6944444444444446 	299.9999999999799 	9.773948490300202e-13 	101324.9999999964
-0.6919419419419421 	300.0000000000115 	1.048748392097282e-12 	101324.9999999964
-0.6894394394394396 	299.9999999999966 	8.72389458392485e-13 	101324.9999999964
-0.6869369369369374 	300.0000000000043 	1.241697569981205e-12 	101324.9999999966
-0.6844344344344344 	300.0000000000101 	8.722564562563017e-13 	101324.9999999966
-0.6819319319319321 	299.9999999999812 	1.46366680677898e-12 	101324.9999999966
-0.6794294294294296 	299.9999999999734 	1.425155928231368e-12 	101324.9999999966
-0.6769269269269272 	299.9999999999592 	1.514246460112306e-12 	101324.9999999966
-0.6744244244244245 	299.9999999999834 	1.237585060716028e-12 	101324.9999999965
-0.6719219219219222 	299.9999999999809 	6.228143903959814e-13 	101324.9999999964
-0.6694194194194195 	299.9999999999991 	6.228431241166037e-13 	101324.9999999966
-0.6669169169169172 	300.000000000008 	5.367429454653864e-13 	101324.9999999964
-0.6644144144144146 	299.9999999999812 	7.045417594633869e-13 	101324.9999999964
-0.661911911911912 	299.9999999999837 	5.206967520204172e-13 	101324.9999999965
-0.6594094094094097 	299.9999999999881 	1.019606187660941e-12 	101324.9999999966
-0.656906906906907 	299.9999999999706 	4.805352967209915e-13 	101324.9999999967
-0.6544044044044046 	299.9999999999735 	2.067436870262865e-12 	101324.9999999967
-0.6519019019019021 	299.9999999999947 	1.417946968603312e-12 	101324.9999999967
-0.6493993993993996 	300.0000000000108 	2.749388178857229e-12 	101324.9999999967
-0.6468968968968971 	300.000000000014 	1.377020473193367e-12 	101324.9999999966
-0.6443943943943946 	299.9999999999978 	1.917034894201989e-12 	101324.9999999964
-0.6418918918918921 	299.9999999999969 	1.550290587776002e-12 	101324.9999999963
-0.6393893893893897 	299.9999999999984 	6.661567934048515e-13 	101324.9999999965
-0.6368868868868871 	299.9999999999874 	1.293457579547854e-12 	101324.9999999966
-0.6343843843843846 	299.9999999999976 	1.176907627099598e-12 	101324.9999999967
-0.6318818818818821 	299.999999999979 	1.365965205144109e-12 	101324.9999999968
-0.6293793793793795 	300.0000000000006 	1.107588362185719e-12 	101324.9999999967
-0.6268768768768773 	300.0000000000075 	4.941177979594287e-13 	101324.9999999968
-0.6243743743743745 	299.9999999999893 	2.742045312963872e-13 	101324.9999999968
-0.6218718718718721 	300.000000000002 	1.721472128559199e-12 	101324.9999999969
-0.6193693693693696 	299.9999999999704 	1.411817220744681e-12 	101324.999999997
-0.6168668668668671 	299.9999999999916 	2.128129951084043e-12 	101324.9999999971
-0.6143643643643645 	300.0000000000063 	1.448098367739287e-12 	101324.9999999971
-0.6118618618618621 	299.9999999999927 	2.218051018042044e-12 	101324.9999999972
-0.6093593593593596 	299.9999999999925 	2.01603033097429e-12 	101324.9999999973
-0.6068568568568571 	299.9999999999926 	2.004988907726133e-12 	101324.9999999972
-0.6043543543543546 	299.9999999999815 	1.645065905053842e-12 	101324.9999999972
-0.6018518518518521 	299.999999999985 	2.004164801814122e-12 	101324.9999999971
-0.5993493493493496 	299.9999999999728 	1.780696280165551e-12 	101324.9999999969
-0.5968468468468471 	299.9999999999786 	2.270265901035713e-12 	101324.9999999968
-0.5943443443443446 	299.9999999999968 	1.298772185778164e-12 	101324.9999999966
-0.591841841841842 	299.9999999999799 	1.661586318574375e-12 	101324.9999999963
-0.5893393393393397 	299.9999999999778 	1.23447365724705e-12 	101324.9999999963
-0.5868368368368371 	299.9999999999955 	1.368660305639105e-12 	101324.9999999962
-0.5843343343343346 	299.9999999999993 	1.934852381019062e-12 	101324.9999999962
-0.5818318318318321 	300.0000000000134 	2.053510556456417e-12 	101324.9999999966
-0.5793293293293297 	299.9999999999929 	1.210992582659696e-12 	101324.9999999965
-0.5768268268268271 	300.0000000000007 	2.079719731508875e-12 	101324.9999999966
-0.5743243243243245 	300.0000000000109 	1.17623508807289e-12 	101324.9999999968
-0.5718218218218221 	300.0000000000107 	1.567003255165063e-12 	101324.999999997
-0.5693193193193196 	300.0000000000217 	1.636894745194908e-12 	101324.9999999968
-0.5668168168168171 	299.9999999999944 	5.875981274545045e-13 	101324.9999999967
-0.5643143143143147 	299.9999999999749 	1.209877516840663e-12 	101324.9999999964
-0.5618118118118121 	300.0000000000063 	4.679824206076345e-13 	101324.9999999964
-0.5593093093093094 	300.0000000000161 	1.525532094464859e-12 	101324.9999999963
-0.5568068068068072 	300.000000000008 	1.048742091483657e-12 	101324.9999999963
-0.5543043043043046 	300.0000000000101 	1.103791258772392e-12 	101324.9999999964
-0.551801801801802 	299.9999999999784 	5.747030821426483e-13 	101324.9999999966
-0.5492992992992995 	299.9999999999983 	8.620701346459878e-13 	101324.9999999966
-0.5467967967967969 	300.0000000000077 	8.03110393534362e-13 	101324.9999999968
-0.5442942942942947 	300.0000000000045 	9.423812652867422e-13 	101324.9999999971
-0.5417917917917919 	299.9999999999814 	7.015130637665693e-13 	101324.9999999972
-0.5392892892892895 	299.9999999999685 	1.026461425528908e-12 	101324.9999999974
-0.536786786786787 	299.9999999999797 	6.425019268449923e-13 	101324.9999999974
-0.5342842842842846 	299.9999999999832 	1.080064807634839e-12 	101324.9999999974
-0.531781781781782 	299.9999999999706 	2.833474846225665e-13 	101324.9999999976
-0.5292792792792794 	299.9999999999677 	2.14356202652427e-12 	101324.9999999973
-0.526776776776777 	299.9999999999595 	1.233509500193875e-12 	101324.999999997
-0.5242742742742745 	299.9999999999903 	3.00275961118329e-12 	101324.9999999971
-0.521771771771772 	300.0000000000068 	2.995949598386662e-12 	101324.9999999973
-0.5192692692692695 	299.9999999999817 	3.429401027713352e-12 	101324.9999999973
-0.516766766766767 	300.0000000000008 	3.324518756200602e-12 	101324.9999999974
-0.5142642642642645 	299.9999999999842 	2.738075714989369e-12 	101324.9999999976
-0.511761761761762 	299.9999999999775 	2.478730845534502e-12 	101324.9999999975
-0.5092592592592596 	299.9999999999874 	1.9742166906787e-12 	101324.9999999975
-0.506756756756757 	299.9999999999754 	1.468468564344422e-12 	101324.9999999972
-0.5042542542542544 	299.9999999999985 	2.050091942191096e-12 	101324.9999999972
-0.5017517517517521 	300.0000000000138 	8.657286624059233e-13 	101324.999999997
-0.4992492492492494 	300.0000000000155 	1.40805412077016e-12 	101324.9999999968
-0.496746746746747 	299.9999999999953 	4.648124883260802e-13 	101324.9999999966
-0.4942442442442445 	299.9999999999712 	1.164383062027453e-12 	101324.9999999966
-0.4917417417417421 	299.9999999999712 	7.21874079601608e-13 	101324.9999999968
-0.4892392392392395 	299.999999999979 	1.215950748187043e-12 	101324.9999999969
-0.486736736736737 	299.9999999999795 	6.340708684362005e-13 	101324.9999999967
-0.4842342342342345 	299.9999999999636 	1.925950511474138e-12 	101324.9999999966
-0.481731731731732 	300.0000000000163 	9.449728359401116e-13 	101324.9999999967
-0.4792292292292296 	300.0000000000106 	2.304477980279739e-12 	101324.9999999967
-0.4767267267267268 	299.9999999999812 	7.732245024829749e-13 	101324.9999999966
-0.4742242242242246 	300.0000000000005 	3.020170278522401e-12 	101324.9999999967
-0.471721721721722 	299.9999999999818 	1.301359718238687e-12 	101324.9999999968
-0.4692192192192195 	299.9999999999928 	1.925847768523921e-12 	101324.999999997
-0.4667167167167169 	299.9999999999604 	8.833863816584348e-13 	101324.999999997
-0.4642142142142145 	299.999999999997 	1.256046943200099e-12 	101324.9999999971
-0.461711711711712 	300.0000000000085 	6.043932527229818e-13 	101324.9999999971
-0.4592092092092094 	300.0000000000031 	1.089498811492745e-12 	101324.9999999971
-0.456706706706707 	300.0000000000238 	6.03499252525914e-13 	101324.999999997
-0.4542042042042045 	299.9999999999734 	1.140886089160548e-12 	101324.9999999971
-0.451701701701702 	299.9999999999779 	1.099921070982103e-12 	101324.9999999969
-0.4491991991991995 	299.9999999999822 	1.037045185247926e-12 	101324.9999999966
-0.4466966966966969 	299.9999999999811 	2.146890401012378e-13 	101324.9999999967
-0.4441941941941945 	299.9999999999976 	7.706649311065889e-13 	101324.9999999969
-0.441691691691692 	299.9999999999826 	4.743144319706056e-13 	101324.9999999968
-0.4391891891891895 	299.9999999999949 	2.284055413984435e-12 	101324.9999999967
-0.436686686686687 	299.9999999999866 	1.290051997963854e-12 	101324.9999999968
-0.4341841841841846 	299.9999999999996 	3.243274646847536e-12 	101324.9999999969
-0.431681681681682 	299.9999999999776 	7.504584455116805e-13 	101324.9999999968
-0.4291791791791794 	299.999999999968 	2.206472675711215e-12 	101324.999999997
-0.426676676676677 	299.9999999999621 	1.000540703907083e-12 	101324.9999999972
-0.4241741741741744 	299.9999999999864 	2.605261638225369e-12 	101324.9999999972
-0.421671671671672 	300.0000000000031 	1.791102809563681e-12 	101324.9999999973
-0.4191691691691694 	300.0000000000226 	1.711756287411996e-12 	101324.9999999972
-0.4166666666666669 	300.0000000000271 	3.776032579628921e-13 	101324.9999999972
-0.4141641641641645 	299.9999999999721 	1.297358274455468e-13 	101324.9999999971
-0.411661661661662 	300.0000000000015 	1.0555132277464e-13 	101324.9999999969
-0.4091591591591594 	300.0000000000053 	4.375733631679821e-13 	101324.9999999969
-0.406656656656657 	299.9999999999774 	1.52751205683615e-13 	101324.9999999968
-0.4041541541541545 	300.0000000000078 	4.408511681399125e-13 	101324.9999999967
-0.401651651651652 	299.9999999999662 	5.21061004787069e-13 	101324.9999999967
-0.3991491491491494 	300.0000000000019 	1.730030452603601e-12 	101324.9999999968
-0.396646646646647 	299.9999999999811 	1.803219362272507e-12 	101324.9999999969
-0.3941441441441444 	299.9999999999914 	2.301358551792849e-12 	101324.999999997
-0.3916416416416419 	299.9999999999716 	1.702745639830658e-12 	101324.9999999971
-0.3891391391391395 	299.999999999982 	1.939608600365128e-12 	101324.9999999972
-0.3866366366366368 	299.9999999999813 	4.461763217268989e-13 	101324.999999997
-0.3841341341341344 	300.000000000001 	1.73075881144481e-12 	101324.9999999971
-0.381631631631632 	299.9999999999782 	1.124927299364129e-12 	101324.9999999971
-0.3791291291291294 	300.0000000000019 	6.906752263701418e-13 	101324.9999999972
-0.3766266266266269 	300.0000000000105 	2.987464366808233e-13 	101324.9999999971
-0.3741241241241244 	300.000000000011 	1.151843141188417e-12 	101324.999999997
-0.371621621621622 	300.0000000000101 	8.398335270745411e-13 	101324.9999999969
-0.3691191191191194 	300.0000000000051 	1.804945596078817e-12 	101324.9999999969
-0.366616616616617 	300.0000000000056 	1.450164972775076e-12 	101324.999999997
-0.3641141141141143 	299.9999999999893 	1.438772412760793e-12 	101324.9999999969
-0.3616116116116119 	299.9999999999737 	1.320561472026709e-12 	101324.9999999968
-0.3591091091091095 	299.9999999999896 	7.838699388020209e-13 	101324.9999999966
-0.356606606606607 	299.9999999999923 	3.371680230793245e-13 	101324.9999999966
-0.3541041041041044 	299.9999999999984 	7.29549214437501e-13 	101324.9999999967
-0.3516016016016019 	300.0000000000102 	1.471586286992642e-12 	101324.9999999968
-0.3490990990990994 	299.9999999999976 	6.217726107164267e-13 	101324.9999999965
-0.346596596596597 	300.0000000000124 	2.311367498084652e-12 	101324.9999999965
-0.3440940940940944 	300.0000000000151 	7.824263863140674e-13 	101324.9999999965
-0.3415915915915919 	300.0000000000133 	2.368691286085291e-12 	101324.9999999966
-0.3390890890890895 	299.9999999999922 	7.802733204882266e-13 	101324.9999999964
-0.3365865865865869 	300.0000000000054 	1.233964307352104e-12 	101324.9999999963
-0.3340840840840844 	299.9999999999944 	8.158490874736825e-13 	101324.9999999961
-0.3315815815815819 	300.0000000000095 	1.514875241352894e-12 	101324.9999999963
-0.3290790790790794 	300.0000000000123 	1.606229844426273e-12 	101324.9999999962
-0.3265765765765769 	299.9999999999706 	1.673026468669831e-12 	101324.9999999963
-0.3240740740740744 	300.000000000001 	1.428874671730176e-12 	101324.9999999963
-0.3215715715715718 	300.0000000000069 	2.210271067410631e-12 	101324.9999999967
-0.3190690690690695 	299.9999999999729 	1.306211696217843e-12 	101324.9999999966
-0.3165665665665668 	299.9999999999951 	1.749826038024528e-12 	101324.9999999965
-0.3140640640640644 	299.9999999999972 	2.807462456423169e-13 	101324.9999999966
-0.311561561561562 	299.9999999999673 	2.182703672056823e-12 	101324.9999999968
-0.3090590590590593 	299.9999999999993 	1.180604134970661e-12 	101324.9999999966
-0.3065565565565568 	300.0000000000031 	3.190428141657933e-12 	101324.9999999965
-0.3040540540540545 	299.9999999999977 	1.012432670861624e-12 	101324.9999999962
-0.3015515515515518 	300.0000000000118 	3.271770114071631e-12 	101324.999999996
-0.2990490490490494 	299.9999999999715 	1.587841178229222e-12 	101324.9999999959
-0.2965465465465469 	299.9999999999984 	2.565406681757838e-12 	101324.9999999959
-0.2940440440440444 	299.9999999999946 	1.995085391400759e-12 	101324.999999996
-0.2915415415415418 	300.000000000006 	2.190601266224583e-12 	101324.9999999961
-0.2890390390390395 	300.0000000000075 	2.828728541605678e-12 	101324.9999999963
-0.2865365365365368 	299.9999999999864 	1.405534136805692e-12 	101324.9999999963
-0.2840340340340343 	299.9999999999981 	2.792857036838734e-12 	101324.999999996
-0.2815315315315318 	299.9999999999633 	1.193623664514831e-12 	101324.9999999957
-0.2790290290290295 	299.9999999999853 	2.179278680420708e-12 	101324.9999999956
-0.2765265265265269 	300.0000000000053 	1.056139892146286e-12 	101324.9999999956
-0.2740240240240244 	300.000000000008 	1.705311523193004e-12 	101324.9999999956
-0.2715215215215219 	300.0000000000071 	2.403171835086181e-12 	101324.9999999955
-0.2690190190190194 	299.9999999999735 	2.864699931013441e-12 	101324.9999999956
-0.2665165165165169 	299.9999999999959 	3.87996639777391e-12 	101324.9999999958
-0.2640140140140144 	299.9999999999904 	3.469872345479437e-12 	101324.9999999957
-0.2615115115115119 	299.9999999999976 	5.108882791324369e-12 	101324.9999999959
-0.2590090090090094 	299.9999999999653 	3.469973791002556e-12 	101324.9999999959
-0.2565065065065068 	299.9999999999951 	3.819565545559826e-12 	101324.9999999958
-0.2540040040040044 	299.9999999999927 	3.155147602054418e-12 	101324.999999996
-0.2515015015015019 	300.0000000000106 	2.873285533333409e-12 	101324.9999999961
-0.2489989989989994 	300.0000000000173 	3.707590372328137e-12 	101324.9999999963
-0.2464964964964968 	299.9999999999906 	2.168079668600537e-12 	101324.9999999959
-0.2439939939939944 	299.9999999999911 	4.391956589905656e-12 	101324.9999999957
-0.2414914914914919 	299.999999999981 	2.189959784513169e-12 	101324.999999996
-0.2389889889889893 	299.999999999996 	4.545875631969273e-12 	101324.9999999958
-0.2364864864864869 	300.0000000000088 	2.288594465451044e-12 	101324.9999999957
-0.2339839839839843 	299.9999999999759 	4.610658649693312e-12 	101324.9999999956
-0.2314814814814819 	299.9999999999891 	2.364764707092281e-12 	101324.9999999959
-0.2289789789789792 	299.9999999999638 	4.441635549033876e-12 	101324.999999996
-0.2264764764764769 	299.9999999999744 	3.212905905726093e-12 	101324.9999999963
-0.2239739739739743 	299.9999999999868 	4.305499476173213e-12 	101324.9999999966
-0.2214714714714718 	299.9999999999742 	3.737593276528009e-12 	101324.9999999964
-0.2189689689689693 	299.9999999999842 	3.015114565017017e-12 	101324.9999999963
-0.2164664664664669 	299.9999999999895 	4.050609229209356e-12 	101324.9999999963
-0.2139639639639643 	299.9999999999688 	2.441715446380089e-12 	101324.9999999963
-0.2114614614614618 	299.9999999999865 	3.197689474719228e-12 	101324.9999999961
-0.2089589589589593 	300.0000000000003 	2.991561057483962e-12 	101324.9999999961
-0.2064564564564568 	300.0000000000007 	2.68488056290392e-12 	101324.9999999963
-0.2039539539539543 	299.9999999999644 	3.185953981161916e-12 	101324.9999999964
-0.2014514514514518 	299.9999999999673 	1.257366159559498e-12 	101324.9999999964
-0.1989489489489494 	299.9999999999885 	3.147661120077146e-12 	101324.9999999962
-0.1964464464464468 	300.0000000000044 	7.327329305921673e-13 	101324.999999996
-0.1939439439439443 	299.9999999999995 	3.443503158209818e-12 	101324.9999999959
-0.1914414414414418 	299.9999999999695 	2.705702060756623e-12 	101324.999999996
-0.1889389389389393 	299.9999999999981 	3.934245033660268e-12 	101324.9999999962
-0.1864364364364368 	300.0000000000109 	4.08345196930876e-12 	101324.999999996
-0.1839339339339343 	299.9999999999876 	3.916197542515553e-12 	101324.9999999957
-0.1814314314314318 	299.9999999999937 	4.071696411552007e-12 	101324.9999999958
-0.1789289289289293 	299.9999999999558 	4.555169118765827e-12 	101324.999999996
-0.1764264264264268 	299.9999999999889 	4.155444942699371e-12 	101324.9999999959
-0.1739239239239243 	299.999999999956 	4.240242393681477e-12 	101324.9999999959
-0.1714214214214218 	299.9999999999951 	2.74025397504171e-12 	101324.9999999959
-0.1689189189189193 	299.9999999999753 	3.510091579045424e-12 	101324.9999999957
-0.1664164164164168 	299.9999999999982 	1.89636145725325e-12 	101324.9999999956
-0.1639139139139143 	299.9999999999929 	4.876286908643133e-12 	101324.9999999957
-0.1614114114114118 	300.0000000000064 	1.282399120531922e-12 	101324.9999999957
-0.1589089089089093 	300.0000000000003 	6.813712143680229e-12 	101324.9999999959
-0.1564064064064068 	299.9999999999866 	6.71778273448497e-13 	101324.9999999959
-0.1539039039039043 	299.999999999998 	7.394450978262868e-12 	101324.9999999959
-0.1514014014014018 	300.0000000000103 	1.969760733029869e-12 	101324.9999999958
-0.1488988988988993 	299.9999999999989 	7.779035598436401e-12 	101324.9999999956
-0.1463963963963968 	300.0000000000011 	3.055555434879348e-12 	101324.9999999955
-0.1438938938938943 	299.9999999999836 	6.669731779652058e-12 	101324.9999999957
-0.1413913913913918 	299.9999999999654 	3.561606760957886e-12 	101324.9999999959
-0.1388888888888893 	299.9999999999881 	5.15149671831732e-12 	101324.9999999958
-0.1363863863863868 	299.999999999952 	3.897087096140756e-12 	101324.9999999958
-0.1338838838838843 	299.9999999999704 	3.909377197877409e-12 	101324.9999999955
-0.1313813813813818 	299.9999999999968 	2.94080547128144e-12 	101324.9999999954
-0.1288788788788793 	299.9999999999816 	3.476840565572583e-12 	101324.9999999953
-0.1263763763763768 	299.999999999988 	2.870456094763972e-12 	101324.9999999954
-0.1238738738738743 	299.9999999999725 	3.752163067281157e-12 	101324.9999999951
-0.1213713713713717 	299.9999999999962 	2.470622299098336e-12 	101324.999999995
-0.1188688688688693 	300.0000000000074 	4.694040180487477e-12 	101324.9999999949
-0.1163663663663668 	299.9999999999559 	2.642641989442432e-12 	101324.9999999949
-0.1138638638638643 	299.9999999999936 	5.404840980435981e-12 	101324.9999999954
-0.1113613613613618 	299.9999999999941 	2.796528710707159e-12 	101324.9999999954
-0.1088588588588592 	299.9999999999914 	6.060587173366049e-12 	101324.9999999955
-0.1063563563563568 	299.999999999984 	2.932245436004586e-12 	101324.9999999956
-0.1038538538538543 	299.9999999999935 	5.482857910586167e-12 	101324.9999999954
-0.1013513513513517 	300.0000000000043 	4.104900072153909e-12 	101324.9999999953
-0.09884884884884926 	299.9999999999803 	5.383126533259428e-12 	101324.9999999952
-0.09634634634634676 	299.9999999999597 	4.123617899814537e-12 	101324.9999999952
-0.09384384384384425 	299.9999999999627 	4.182765593993132e-12 	101324.9999999951
-0.09134134134134177 	300.000000000006 	3.536588459212228e-12 	101324.9999999952
-0.08883883883883925 	300.0000000000041 	4.097086031939214e-12 	101324.9999999952
-0.08633633633633674 	299.9999999999774 	3.536914298912654e-12 	101324.9999999952
-0.08383383383383426 	300.0000000000011 	3.403846153058269e-12 	101324.9999999953
-0.08133133133133173 	299.999999999986 	3.950567245443739e-12 	101324.9999999955
-0.07882882882882926 	299.999999999953 	3.943753347676716e-12 	101324.9999999958
-0.07632632632632676 	299.9999999999839 	4.008881805955611e-12 	101324.9999999957
-0.07382382382382424 	299.9999999999551 	3.431798211114118e-12 	101324.9999999957
-0.07132132132132173 	300.0000000000039 	2.792201943473573e-12 	101324.9999999956
-0.06881881881881925 	299.9999999999829 	2.336382421649593e-12 	101324.9999999954
-0.06631631631631671 	299.999999999953 	1.846946824587813e-12 	101324.9999999956
-0.06381381381381425 	299.9999999999812 	1.370284046225262e-12 	101324.9999999954
-0.06131131131131173 	299.9999999999824 	1.605431461895659e-12 	101324.9999999953
-0.05880880880880923 	299.9999999999667 	1.611471238137123e-12 	101324.9999999952
-0.05630630630630672 	299.9999999999831 	1.781865391988915e-12 	101324.9999999953
-0.05380380380380424 	300.0000000000064 	1.869919666249112e-12 	101324.9999999956
-0.05130130130130173 	300.0000000000069 	1.651443914073722e-12 	101324.9999999958
-0.04879879879879922 	299.9999999999762 	1.290967394858566e-12 	101324.9999999957
-0.04629629629629672 	299.9999999999709 	6.315759103949623e-13 	101324.9999999952
-0.04379379379379422 	299.9999999999602 	9.787997827693568e-13 	101324.9999999954
-0.04129129129129173 	299.9999999999923 	7.099178802850027e-13 	101324.9999999953
-0.03878878878878922 	299.9999999999931 	1.339304036660429e-12 	101324.9999999954
-0.03628628628628671 	299.9999999999919 	1.01475444738666e-12 	101324.9999999954
-0.03378378378378422 	299.9999999999683 	1.195693251011699e-12 	101324.9999999952
-0.03128128128128172 	299.9999999999843 	2.516930527641053e-13 	101324.9999999952
-0.02877877877877922 	299.9999999999838 	5.348718978457988e-13 	101324.9999999955
-0.0262762762762767 	299.9999999999565 	1.902561264764617e-13 	101324.9999999956
-0.02377377377377422 	300.000000000007 	3.473218226160997e-13 	101324.9999999957
-0.0212712712712717 	299.9999999999571 	6.47802162277399e-13 	101324.9999999955
-0.01876876876876921 	299.9999999999864 	2.48795749767395e-14 	101324.9999999953
-0.01626626626626671 	300.0000000000032 	9.186743309062269e-13 	101324.9999999953
-0.0137637637637642 	299.9999999999824 	4.531488800305155e-13 	101324.9999999952
-0.0112612612612617 	300.0000000000035 	5.661409681667651e-13 	101324.999999995
-0.008758758758759198 	299.9999999999971 	5.763246187657941e-13 	101324.9999999952
-0.006256256256256697 	299.9999999999522 	7.444472655251118e-13 	101324.9999999953
-0.003753753753754195 	299.9999999999789 	7.799938155602111e-14 	101324.9999999953
-0.001251251251251693 	299.9999999999665 	6.484444142075384e-13 	101324.9999999952
0.00125125125125081 	299.9999999999791 	5.747776841321936e-13 	101324.9999999952
0.003753753753753312 	299.9999999999832 	1.273586097328006e-12 	101324.9999999952
0.006256256256255817 	299.9999999999509 	9.428301688657659e-13 	101324.999999995
0.008758758758758317 	299.9999999999944 	3.181137288656459e-13 	101324.999999995
0.01126126126126082 	300.0000000000026 	2.104815705920595e-13 	101324.9999999951
0.01376376376376332 	299.9999999999852 	3.348929591634607e-13 	101324.9999999953
0.01626626626626582 	300.0000000000023 	5.46516050352944e-13 	101324.9999999954
0.01876876876876833 	299.9999999999806 	4.69467703461013e-13 	101324.9999999958
0.02127127127127083 	299.9999999999882 	6.334686982354155e-13 	101324.9999999958
0.02377377377377332 	299.9999999999981 	6.367972426940416e-13 	101324.9999999958
0.02627627627627583 	299.9999999999591 	6.238995212260264e-13 	101324.9999999958
0.02877877877877833 	299.9999999999994 	1.126423736699123e-12 	101324.9999999957
0.03128128128128083 	299.9999999999744 	7.848699556038446e-13 	101324.9999999954
0.03378378378378333 	299.9999999999548 	1.336457118836481e-12 	101324.9999999954
0.03628628628628584 	299.9999999999898 	2.054603337917576e-12 	101324.9999999951
0.03878878878878834 	299.9999999999923 	2.159410536019524e-12 	101324.999999995
0.04129129129129084 	299.9999999999868 	2.446609200946055e-12 	101324.9999999951
0.04379379379379333 	299.9999999999712 	2.91072574548299e-12 	101324.9999999951
0.04629629629629585 	299.9999999999504 	3.596804724550555e-12 	101324.999999995
0.04879879879879834 	299.9999999999783 	4.147994160448063e-12 	101324.999999995
0.05130130130130085 	300.0000000000034 	3.756372119058764e-12 	101324.999999995
0.05380380380380335 	300.0000000000107 	2.804891573899169e-12 	101324.9999999954
0.05630630630630584 	299.9999999999945 	2.476901948179576e-12 	101324.9999999956
0.05880880880880836 	299.9999999999671 	2.510320800419502e-12 	101324.9999999957
0.06131131131131085 	299.9999999999895 	3.196308546383268e-12 	101324.9999999959
0.06381381381381336 	299.9999999999816 	2.753528899097516e-12 	101324.9999999958
0.06631631631631586 	299.9999999999501 	2.275093460677831e-12 	101324.9999999959
0.06881881881881835 	299.9999999999761 	2.055148456354562e-12 	101324.9999999962
0.07132132132132088 	299.9999999999986 	1.443527827441445e-12 	101324.9999999961
0.07382382382382337 	299.9999999999587 	1.542789951685187e-12 	101324.999999996
0.07632632632632587 	299.9999999999861 	1.873570749976544e-12 	101324.9999999963
0.07882882882882837 	299.9999999999721 	1.964588159431544e-12 	101324.9999999961
0.08133133133133086 	299.9999999999966 	3.111857470658211e-12 	101324.999999996
0.08383383383383337 	299.9999999999967 	3.239415655687167e-12 	101324.9999999961
0.08633633633633589 	299.999999999958 	4.143048716218959e-12 	101324.9999999959
0.08883883883883838 	300.0000000000048 	4.673851071605283e-12 	101324.9999999961
0.09134134134134086 	299.9999999999954 	4.025600855451007e-12 	101324.9999999961
0.09384384384384339 	299.9999999999569 	4.635016983710107e-12 	101324.999999996
0.09634634634634588 	299.9999999999845 	4.265952919028247e-12 	101324.9999999959
0.09884884884884838 	299.9999999999877 	4.04188369279191e-12 	101324.9999999959
0.1013513513513509 	300.0000000000124 	2.889523407084228e-12 	101324.9999999959
0.1038538538538534 	299.9999999999752 	2.269267303138359e-12 	101324.999999996
0.1063563563563559 	300.0000000000048 	2.682567360332519e-12 	101324.9999999959
0.1088588588588584 	300.0000000000093 	1.912717169291027e-12 	101324.9999999959
0.1113613613613609 	299.9999999999741 	2.199039162741338e-12 	101324.9999999959
0.1138638638638634 	299.9999999999787 	2.361154679861668e-12 	101324.9999999958
0.1163663663663659 	299.9999999999749 	3.250133890977463e-12 	101324.9999999956
0.1188688688688684 	299.9999999999834 	3.487913308976998e-12 	101324.9999999955
0.1213713713713709 	299.9999999999955 	3.900043902408243e-12 	101324.9999999954
0.1238738738738734 	299.9999999999649 	3.860466550399744e-12 	101324.9999999956
0.1263763763763759 	299.9999999999939 	4.011715615103604e-12 	101324.9999999954
0.1288788788788784 	299.9999999999941 	3.632190350789394e-12 	101324.9999999955
0.1313813813813809 	299.9999999999936 	4.219030029287946e-12 	101324.9999999956
0.1338838838838834 	299.9999999999855 	4.353101442544555e-12 	101324.9999999955
0.1363863863863859 	300.0000000000106 	4.370811981546942e-12 	101324.9999999955
0.1388888888888884 	300.000000000017 	3.875332319542267e-12 	101324.9999999957
0.1413913913913909 	299.9999999999985 	3.811706024635046e-12 	101324.9999999958
0.1438938938938934 	299.9999999999965 	3.293744724195558e-12 	101324.9999999957
0.1463963963963959 	299.9999999999836 	3.165112845743256e-12 	101324.9999999956
0.1488988988988985 	299.9999999999616 	3.736723420840979e-12 	101324.9999999961
0.1514014014014009 	299.9999999999839 	3.415917871671553e-12 	101324.9999999962
0.1539039039039035 	299.9999999999804 	4.282429038472991e-12 	101324.9999999961
0.1564064064064059 	299.9999999999816 	2.676923196614928e-12 	101324.9999999958
0.1589089089089084 	299.9999999999882 	4.835746774611374e-12 	101324.9999999954
0.1614114114114109 	299.9999999999866 	2.945245000094288e-12 	101324.9999999952
0.1639139139139134 	299.9999999999636 	4.081644883955607e-12 	101324.9999999952
0.166416416416416 	299.9999999999974 	4.073727816926892e-12 	101324.9999999953
0.1689189189189185 	300.0000000000123 	4.232273867752117e-12 	101324.9999999954
0.1714214214214209 	299.9999999999922 	4.965246134526184e-12 	101324.9999999954
0.1739239239239235 	299.9999999999945 	4.385645947894176e-12 	101324.9999999957
0.1764264264264259 	299.9999999999804 	4.790410913983887e-12 	101324.9999999958
0.1789289289289284 	300.0000000000029 	2.059440777999353e-12 	101324.9999999958
0.181431431431431 	299.9999999999864 	4.046877515156621e-12 	101324.9999999958
0.1839339339339334 	299.9999999999895 	2.608001474042273e-12 	101324.9999999958
0.186436436436436 	299.9999999999714 	4.059736360043839e-12 	101324.9999999956
0.1889389389389385 	299.9999999999907 	4.20020375900073e-12 	101324.9999999954
0.191441441441441 	299.9999999999901 	3.793314802600869e-12 	101324.9999999956
0.1939439439439434 	299.9999999999672 	4.752083470170148e-12 	101324.9999999956
0.196446446446446 	299.9999999999808 	3.523192288837905e-12 	101324.9999999958
0.1989489489489485 	299.999999999987 	5.586830527436634e-12 	101324.999999996
0.2014514514514509 	299.9999999999923 	3.947379383698444e-12 	101324.9999999961
0.2039539539539535 	299.9999999999941 	4.45321830856979e-12 	101324.9999999959
0.2064564564564559 	299.9999999999818 	3.847299350643581e-12 	101324.999999996
0.2089589589589585 	299.9999999999915 	4.409730883109166e-12 	101324.9999999959
0.211461461461461 	299.999999999976 	4.423997947660269e-12 	101324.9999999958
0.2139639639639635 	299.9999999999959 	4.18017959524598e-12 	101324.9999999957
0.2164664664664659 	300.0000000000013 	4.526165516515838e-12 	101324.9999999958
0.2189689689689684 	299.999999999999 	3.636150178888384e-12 	101324.9999999957
0.221471471471471 	299.9999999999992 	5.253968797907416e-12 	101324.9999999958
0.2239739739739735 	299.9999999999803 	3.733042194928127e-12 	101324.9999999959
0.226476476476476 	299.9999999999931 	5.003633466795132e-12 	101324.9999999957
0.2289789789789785 	299.9999999999993 	4.055510458999347e-12 	101324.9999999958
0.231481481481481 	299.9999999999933 	3.475397755933458e-12 	101324.999999996
0.2339839839839835 	299.9999999999923 	3.854782226237684e-12 	101324.9999999961
0.236486486486486 	300.0000000000088 	2.973293945428452e-12 	101324.999999996
0.2389889889889885 	299.9999999999995 	3.856393718584975e-12 	101324.9999999959
0.241491491491491 	299.9999999999681 	2.400233473437151e-12 	101324.9999999959
0.2439939939939935 	299.9999999999943 	4.747547051263236e-12 	101324.9999999961
0.246496496496496 	299.9999999999929 	2.799998623690656e-12 	101324.9999999959
0.2489989989989985 	300.0000000000096 	3.60875888083115e-12 	101324.9999999962
0.251501501501501 	300.0000000000071 	2.252618923024617e-12 	101324.9999999962
0.2540040040040035 	299.9999999999943 	1.807977932708269e-12 	101324.9999999958
0.256506506506506 	300.0000000000065 	2.312579998915343e-12 	101324.9999999958
0.2590090090090086 	299.9999999999616 	1.760914619985569e-12 	101324.9999999957
0.261511511511511 	300.0000000000035 	3.80791025241125e-12 	101324.9999999957
0.2640140140140135 	299.9999999999935 	1.497348284851734e-12 	101324.9999999958
0.2665165165165161 	299.9999999999721 	2.584663914772287e-12 	101324.9999999961
0.2690190190190185 	300.0000000000074 	1.560730824817019e-12 	101324.999999996
0.271521521521521 	299.9999999999994 	1.708527676178976e-12 	101324.999999996
0.2740240240240235 	300.0000000000038 	1.962927980246018e-12 	101324.9999999962
0.276526526526526 	300.0000000000006 	1.213113555498483e-12 	101324.9999999961
0.2790290290290286 	299.9999999999753 	1.880765637302917e-12 	101324.9999999961
0.281531531531531 	299.9999999999654 	6.301177426377021e-13 	101324.9999999962
0.2840340340340335 	299.9999999999917 	2.416202726791749e-12 	101324.9999999962
0.2865365365365361 	299.9999999999825 	9.690159401867662e-13 	101324.9999999958
0.2890390390390385 	299.9999999999954 	1.794214294694221e-12 	101324.9999999956
0.291541541541541 	299.9999999999961 	1.400963930148406e-12 	101324.9999999956
0.2940440440440436 	299.9999999999955 	1.281883690598448e-12 	101324.9999999955
0.296546546546546 	299.9999999999934 	1.410016926177262e-12 	101324.9999999957
0.2990490490490486 	299.9999999999681 	5.397945887231749e-13 	101324.9999999961
0.3015515515515511 	300.0000000000103 	2.354756645793173e-12 	101324.999999996
0.3040540540540535 	299.9999999999907 	1.320953238631749e-12 	101324.9999999961
0.3065565565565562 	299.9999999999969 	3.097687606934619e-12 	101324.9999999961
0.3090590590590585 	299.9999999999926 	9.536864858938246e-13 	101324.9999999959
0.3115615615615611 	299.9999999999693 	2.720855769588951e-12 	101324.999999996
0.3140640640640635 	299.9999999999973 	1.061914423807366e-12 	101324.9999999963
0.316566566566566 	299.9999999999932 	2.222490972118801e-12 	101324.9999999966
0.3190690690690687 	299.9999999999799 	9.373728131878206e-13 	101324.9999999967
0.3215715715715711 	300.0000000000034 	1.501478229099404e-12 	101324.9999999967
0.3240740740740735 	299.9999999999956 	5.852069589793422e-13 	101324.9999999967
0.326576576576576 	299.9999999999566 	7.399231180904116e-13 	101324.9999999967
0.3290790790790786 	299.9999999999998 	4.322591930509626e-13 	101324.9999999968
0.3315815815815811 	300.0000000000169 	4.422272370283799e-13 	101324.9999999965
0.3340840840840836 	299.9999999999981 	4.288005674331139e-13 	101324.9999999966
0.3365865865865861 	300.0000000000258 	7.958057616870566e-13 	101324.9999999966
0.3390890890890886 	300.0000000000197 	2.815281656193952e-13 	101324.9999999966
0.3415915915915911 	300.0000000000001 	3.448154224254592e-13 	101324.9999999965
0.3440940940940935 	299.999999999977 	1.243163126500405e-12 	101324.9999999965
0.3465965965965962 	300.0000000000167 	1.000556340263432e-12 	101324.9999999967
0.3490990990990985 	300.0000000000121 	3.732629320451457e-13 	101324.9999999969
0.3516016016016011 	299.9999999999923 	2.437846834631777e-13 	101324.9999999967
0.3541041041041035 	300.000000000004 	4.100542998374148e-13 	101324.9999999968
0.3566066066066061 	299.9999999999828 	6.286311296026998e-13 	101324.9999999968
0.3591091091091085 	299.9999999999667 	6.634660433127487e-13 	101324.9999999966
0.3616116116116112 	299.9999999999743 	1.066699169359276e-12 	101324.9999999965
0.3641141141141137 	299.9999999999691 	1.258373891656667e-12 	101324.9999999964
0.3666166166166161 	299.9999999999671 	1.444797460978151e-12 	101324.9999999967
0.3691191191191185 	300.0000000000118 	2.223823851025338e-12 	101324.9999999968
0.371621621621621 	300.0000000000072 	8.624049752000324e-13 	101324.9999999968
0.3741241241241237 	300.0000000000207 	1.405003608771588e-12 	101324.9999999968
0.3766266266266261 	300.0000000000088 	5.447544805407809e-13 	101324.9999999968
0.3791291291291286 	299.9999999999926 	6.740788201372572e-13 	101324.9999999968
0.3816316316316311 	299.9999999999678 	6.408915463458427e-13 	101324.9999999967
0.3841341341341336 	300.0000000000017 	6.365226575365863e-13 	101324.9999999966
0.3866366366366362 	299.9999999999968 	9.062165887834893e-13 	101324.9999999966
0.3891391391391387 	299.9999999999816 	7.211266646511362e-13 	101324.9999999968
0.391641641641641 	299.9999999999987 	8.72331378304276e-13 	101324.9999999968
0.3941441441441436 	300.0000000000039 	6.935967143368915e-13 	101324.9999999967
0.3966466466466462 	300.0000000000001 	1.346965935452835e-12 	101324.9999999966
0.3991491491491486 	299.9999999999794 	1.179861407337275e-12 	101324.9999999964
0.4016516516516512 	299.9999999999666 	1.505059418602202e-12 	101324.9999999965
0.4041541541541536 	299.999999999981 	4.643296533585071e-13 	101324.9999999964
0.4066566566566561 	299.9999999999797 	1.734706042819058e-12 	101324.9999999964
0.4091591591591587 	299.9999999999976 	1.06725319162325e-12 	101324.9999999964
0.4116616616616612 	300.0000000000045 	1.175130071329416e-12 	101324.9999999966
0.4141641641641635 	300.0000000000164 	1.058644346143871e-12 	101324.9999999966
0.4166666666666662 	299.9999999999982 	2.445417671745883e-12 	101324.9999999966
0.4191691691691687 	299.9999999999757 	2.955722224531371e-12 	101324.9999999966
0.421671671671671 	300.0000000000049 	2.645728711447254e-12 	101324.9999999965
0.4241741741741737 	299.9999999999875 	3.842436983810814e-12 	101324.9999999964
0.4266766766766761 	299.9999999999788 	1.086237216351733e-12 	101324.9999999964
0.4291791791791785 	300.0000000000089 	3.654335288166351e-12 	101324.9999999963
0.4316816816816812 	300.000000000002 	6.997106468660037e-13 	101324.9999999963
0.4341841841841836 	299.9999999999909 	3.350034944620897e-12 	101324.9999999962
0.4366866866866862 	299.9999999999667 	8.048713562446011e-13 	101324.9999999965
0.4391891891891885 	299.9999999999979 	2.163379063191966e-12 	101324.9999999966
0.4416916916916913 	299.9999999999956 	1.480190796054681e-12 	101324.9999999968
0.4441941941941936 	299.9999999999946 	2.043527932384155e-12 	101324.9999999968
0.4466966966966961 	299.9999999999692 	1.822149129262913e-12 	101324.9999999968
0.4491991991991987 	299.9999999999949 	1.762448591549538e-12 	101324.9999999967
0.4517017017017012 	299.9999999999944 	2.754244724216114e-12 	101324.9999999968
0.4542042042042035 	299.999999999994 	2.29518156734444e-12 	101324.9999999967
0.4567067067067062 	299.9999999999975 	2.51275210744486e-12 	101324.9999999967
0.4592092092092087 	299.9999999999703 	1.566176225681728e-12 	101324.9999999967
0.4617117117117112 	300.0000000000073 	1.382361624632683e-12 	101324.9999999967
0.4642142142142137 	299.9999999999855 	1.414411575918472e-12 	101324.9999999966
0.4667167167167162 	299.9999999999963 	1.897648753536619e-12 	101324.9999999966
0.4692192192192187 	299.9999999999821 	2.815363421766592e-12 	101324.9999999963
0.4717217217217212 	300.0000000000056 	3.45864179195232e-12 	101324.9999999963
0.4742242242242236 	299.9999999999813 	4.110051433684975e-12 	101324.9999999962
0.4767267267267262 	299.9999999999909 	3.829866021242601e-12 	101324.9999999966
0.4792292292292287 	300.0000000000055 	4.158311310663914e-12 	101324.9999999964
0.4817317317317312 	300.0000000000121 	3.794268466899175e-12 	101324.9999999964
0.4842342342342336 	299.999999999993 	3.842280587738379e-12 	101324.9999999966
0.4867367367367362 	299.9999999999816 	4.048355908641381e-12 	101324.9999999966
0.4892392392392387 	300.0000000000095 	3.942399380079689e-12 	101324.9999999967
0.4917417417417412 	300.0000000000011 	4.81645059883706e-12 	101324.9999999965
0.4942442442442437 	299.9999999999606 	3.758361176247638e-12 	101324.9999999964
0.4967467467467462 	299.9999999999681 	4.163389493453854e-12 	101324.9999999964
0.4992492492492487 	299.9999999999661 	2.285372525718563e-12 	101324.9999999963
0.5017517517517511 	299.9999999999805 	3.636602673818842e-12 	101324.9999999964
0.5042542542542537 	299.9999999999852 	2.756039545653949e-12 	101324.9999999966
0.5067567567567562 	299.9999999999791 	3.194396417555035e-12 	101324.9999999967
0.5092592592592589 	299.9999999999874 	3.281993973104805e-12 	101324.9999999966
0.5117617617617611 	299.9999999999836 	2.634389562060407e-12 	101324.9999999965
0.5142642642642637 	299.9999999999948 	3.221930367996168e-12 	101324.9999999965
0.5167667667667663 	299.9999999999894 	1.808061980063795e-12 	101324.9999999965
0.5192692692692688 	299.9999999999686 	3.512297891209258e-12 	101324.9999999967
0.5217717717717714 	299.999999999972 	1.257136175583048e-12 	101324.9999999967
0.5242742742742736 	299.999999999972 	2.755291527771854e-12 	101324.9999999968
0.5267767767767763 	299.9999999999824 	5.04294450697663e-13 	101324.9999999968
0.5292792792792789 	299.9999999999744 	1.92968636209737e-12 	101324.9999999969
0.5317817817817813 	299.9999999999636 	6.2003960351231e-13 	101324.9999999968
0.5342842842842837 	300.0000000000069 	1.35984024038458e-12 	101324.9999999967
0.5367867867867864 	300.0000000000006 	1.522847362165738e-12 	101324.9999999967
0.5392892892892888 	299.9999999999821 	1.384087848567838e-12 	101324.9999999966
0.5417917917917912 	300.0000000000001 	1.030508034078494e-12 	101324.9999999967
0.5442942942942938 	299.9999999999902 	9.833176794210687e-13 	101324.9999999964
0.5467967967967964 	299.9999999999793 	5.266997349373878e-13 	101324.9999999963
0.5492992992992988 	299.9999999999727 	7.883045296324786e-13 	101324.9999999964
0.5518018018018012 	299.999999999972 	5.616898666369853e-13 	101324.9999999964
0.5543043043043039 	300.0000000000076 	8.15180543433572e-13 	101324.9999999966
0.5568068068068063 	299.9999999999948 	7.728677703211303e-13 	101324.9999999966
0.5593093093093087 	299.9999999999625 	1.338621854317369e-12 	101324.9999999963
0.5618118118118114 	299.9999999999849 	7.313191111384885e-13 	101324.9999999961
0.5643143143143137 	299.9999999999769 	7.017394399651432e-13 	101324.999999996
0.5668168168168163 	299.9999999999956 	4.0401775785016e-13 	101324.9999999961
0.5693193193193188 	300.0000000000137 	7.721501286318737e-13 	101324.9999999961
0.5718218218218213 	300.0000000000121 	1.076484622191992e-12 	101324.9999999959
0.5743243243243239 	300.0000000000056 	1.03889530800739e-12 	101324.999999996
0.5768268268268262 	300.0000000000012 	1.994618973510921e-12 	101324.9999999962
0.5793293293293288 	299.9999999999806 	1.126013609574061e-12 	101324.9999999962
0.5818318318318314 	299.999999999969 	3.03576811029435e-12 	101324.9999999963
0.5843343343343338 	299.9999999999919 	1.297717979639723e-12 	101324.9999999965
0.5868368368368363 	299.9999999999885 	2.297714074719063e-12 	101324.9999999967
0.5893393393393387 	299.9999999999745 	8.218290716936982e-13 	101324.9999999968
0.5918418418418413 	299.999999999975 	1.564004270978704e-12 	101324.9999999965
0.5943443443443439 	300.0000000000049 	1.116948992886335e-12 	101324.9999999961
0.5968468468468463 	300.0000000000065 	1.971395033168109e-12 	101324.999999996
0.5993493493493487 	300.0000000000188 	1.761474614771222e-12 	101324.9999999961
0.6018518518518514 	299.9999999999912 	1.894488215003376e-12 	101324.999999996
0.6043543543543537 	299.9999999999974 	2.092864336994652e-12 	101324.9999999962
0.6068568568568564 	299.9999999999914 	2.609506190418746e-12 	101324.9999999964
0.6093593593593587 	299.9999999999685 	2.453773210726317e-12 	101324.9999999964
0.6118618618618614 	299.9999999999681 	2.07693642729012e-12 	101324.9999999963
0.6143643643643638 	300.0000000000034 	1.774487730436755e-12 	101324.9999999962
0.6168668668668662 	299.9999999999941 	2.240750039984021e-12 	101324.9999999961
0.6193693693693688 	299.9999999999816 	1.301409582970986e-12 	101324.9999999961
0.6218718718718714 	299.9999999999872 	1.898919019738812e-12 	101324.9999999961
0.6243743743743737 	299.9999999999739 	7.461586038931493e-13 	101324.9999999959
0.6268768768768762 	299.9999999999677 	1.842027730271315e-12 	101324.9999999958
0.629379379379379 	299.9999999999768 	1.342452771102121e-12 	101324.9999999957
0.6318818818818812 	299.9999999999847 	2.08436799458857e-12 	101324.9999999959
0.6343843843843838 	300.0000000000055 	2.238599025125271e-12 	101324.999999996
0.6368868868868864 	299.9999999999917 	2.549788304460009e-12 	101324.9999999961
0.6393893893893888 	299.9999999999694 	2.516564643362577e-12 	101324.9999999961
0.6418918918918912 	300.0000000000008 	1.159241941859081e-12 	101324.9999999961
0.6443943943943939 	299.9999999999938 	2.906905362568958e-12 	101324.9999999961
0.6468968968968963 	299.9999999999888 	1.450606068383719e-12 	101324.9999999959
0.6493993993993988 	299.9999999999871 	2.120414258443333e-12 	101324.9999999958
0.6519019019019012 	299.9999999999843 	1.345406968242537e-12 	101324.9999999958
0.6544044044044038 	299.9999999999577 	1.309076295107509e-12 	101324.9999999957
0.6569069069069065 	299.9999999999841 	1.169263138051712e-12 	101324.9999999958
0.6594094094094087 	299.9999999999812 	7.55869041839276e-13 	101324.9999999958
0.6619119119119113 	299.9999999999759 	8.134284485806391e-13 	101324.9999999958
0.664414414414414 	299.9999999999955 	6.548236096958508e-13 	101324.9999999956
0.6669169169169162 	300.0000000000044 	8.291568887624212e-13 	101324.9999999957
0.6694194194194188 	299.9999999999934 	1.393036926428835e-12 	101324.9999999957
0.6719219219219214 	299.999999999974 	1.039147838871801e-12 	101324.9999999955
0.674424424424424 	299.9999999999893 	1.230967613711198e-12 	101324.9999999956
0.6769269269269262 	299.9999999999658 	9.108648723603089e-13 	101324.9999999956
0.679429429429429 	300.0000000000007 	1.015397090809171e-12 	101324.9999999958
0.6819319319319311 	299.9999999999872 	6.637649248295533e-13 	101324.9999999957
0.6844344344344341 	299.9999999999969 	1.101886161216403e-12 	101324.9999999957
0.686936936936936 	299.9999999999959 	3.025082271631365e-13 	101324.9999999958
0.6894394394394392 	299.9999999999949 	3.719653213643847e-13 	101324.9999999959
0.6919419419419413 	299.9999999999943 	1.778061714881638e-13 	101324.999999996
0.694444444444444 	299.999999999979 	9.16304637455909e-14 	101324.9999999959
0.6969469469469463 	299.9999999999692 	2.935061635847822e-13 	101324.9999999959
0.6994494494494489 	299.9999999999658 	6.010110406729445e-13 	101324.9999999958
0.7019519519519515 	299.9999999999908 	1.061938451432156e-12 	101324.9999999958
0.7044544544544538 	299.9999999999799 	8.17324741282861e-13 	101324.9999999957
0.7069569569569564 	299.9999999999968 	1.526176125172317e-12 	101324.9999999957
0.7094594594594589 	299.9999999999845 	9.871310452158499e-13 	101324.9999999955
0.7119619619619615 	299.9999999999626 	1.822543859846863e-12 	101324.9999999955
0.7144644644644638 	299.9999999999768 	1.117303978467955e-12 	101324.9999999958
0.7169669669669665 	299.999999999966 	1.573710395706565e-12 	101324.999999996
0.7194694694694688 	299.9999999999966 	7.994246410625246e-13 	101324.9999999961
0.7219719719719715 	299.999999999997 	1.120144650079677e-12 	101324.9999999962
0.7244744744744737 	299.9999999999992 	1.112179401691786e-12 	101324.9999999962
0.7269769769769764 	299.999999999996 	7.911144055044155e-13 	101324.9999999961
0.7294794794794791 	299.9999999999932 	1.545549058420237e-12 	101324.9999999961
0.7319819819819813 	299.9999999999918 	1.231342063802243e-12 	101324.9999999959
0.7344844844844839 	299.9999999999681 	1.03408227625642e-12 	101324.9999999958
0.7369869869869864 	299.9999999999823 	4.963884159601383e-13 	101324.9999999956
0.739489489489489 	299.9999999999759 	2.272653093037795e-13 	101324.9999999953
0.7419919919919914 	299.9999999999701 	8.093973391394254e-13 	101324.9999999952
0.7444944944944939 	299.9999999999878 	1.20317325838854e-12 	101324.9999999951
0.7469969969969963 	299.999999999986 	2.006433302877991e-12 	101324.9999999952
0.7494994994994989 	299.9999999999736 	2.058597927669387e-12 	101324.9999999952
0.7520020020020015 	299.9999999999857 	2.004259095407347e-12 	101324.9999999953
0.7545045045045039 	299.9999999999859 	2.187039375948098e-12 	101324.9999999952
0.7570070070070062 	299.9999999999768 	6.325032281646601e-13 	101324.9999999954
0.7595095095095092 	299.9999999999706 	1.327558305233347e-12 	101324.9999999955
0.7620120120120112 	299.9999999999989 	8.402771882123266e-13 	101324.9999999956
0.7645145145145138 	299.999999999994 	1.068789349223677e-12 	101324.9999999956
0.7670170170170165 	299.9999999999732 	1.52993801970749e-12 	101324.9999999958
0.7695195195195191 	299.9999999999684 	9.514440581047449e-13 	101324.9999999958
0.7720220220220213 	299.999999999975 	1.813876877460209e-12 	101324.9999999956
0.7745245245245239 	299.9999999999744 	1.307501996804393e-12 	101324.9999999955
0.7770270270270263 	299.9999999999874 	1.30683212802828e-12 	101324.9999999955
0.779529529529529 	299.9999999999892 	4.784020864556555e-13 	101324.9999999954
0.7820320320320313 	299.9999999999851 	7.636020185656392e-13 	101324.9999999954
0.784534534534534 	299.9999999999954 	7.911196162327903e-13 	101324.9999999954
0.7870370370370364 	299.9999999999934 	1.056067598373167e-12 	101324.9999999954
0.7895395395395389 	299.9999999999883 	1.920116217637131e-12 	101324.9999999953
0.7920420420420413 	299.99999999999 	1.368755566378159e-12 	101324.9999999954
0.794544544544544 	299.9999999999942 	2.605034444009276e-12 	101324.9999999954
0.7970470470470463 	300.0000000000032 	1.314856987983444e-12 	101324.9999999955
0.799549549549549 	299.9999999999938 	2.27735943902517e-12 	101324.9999999954
0.8020520520520515 	299.9999999999953 	1.034340616830334e-12 	101324.9999999952
0.8045545545545539 	299.9999999999782 	1.330843078994953e-12 	101324.9999999952
0.8070570570570563 	299.9999999999957 	6.418416548733299e-13 	101324.9999999954
0.8095595595595589 	299.999999999984 	1.144669205885161e-12 	101324.9999999956
0.8120620620620614 	299.9999999999712 	1.450793395732827e-12 	101324.9999999959
0.8145645645645638 	299.9999999999948 	1.363728610031882e-12 	101324.9999999962
0.8170670670670666 	299.9999999999924 	1.783096477188505e-12 	101324.9999999963
0.8195695695695689 	299.9999999999887 	1.233368952650964e-12 	101324.9999999964
0.8220720720720714 	299.9999999999771 	2.161063749803549e-12 	101324.9999999964
0.8245745745745739 	299.9999999999993 	5.440325160351091e-13 	101324.9999999964
0.8270770770770765 	299.9999999999891 	1.090141096108536e-12 	101324.9999999963
0.8295795795795788 	299.9999999999803 	2.198110632930869e-13 	101324.9999999963
0.8320820820820815 	300.0000000000084 	4.417919740564433e-13 	101324.9999999962
0.834584584584584 	300.0000000000034 	7.289172743629563e-13 	101324.9999999962
0.8370870870870865 	299.9999999999899 	1.04715178143885e-12 	101324.999999996
0.8395895895895891 	299.9999999999699 	3.768375330237187e-13 	101324.9999999958
0.8420920920920915 	299.9999999999727 	2.532939401112215e-13 	101324.9999999959
0.844594594594594 	299.9999999999706 	6.093463376405024e-13 	101324.9999999958
0.8470970970970964 	299.9999999999751 	6.815044999078215e-13 	101324.9999999957
0.8495995995995991 	299.9999999999922 	7.807311130805983e-13 	101324.9999999959
0.8521021021021015 	299.9999999999899 	9.387994878298887e-13 	101324.999999996
0.8546046046046039 	299.9999999999899 	9.246586320212646e-13 	101324.9999999961
0.8571071071071066 	299.9999999999968 	2.049715255508179e-12 	101324.9999999962
0.8596096096096089 	299.9999999999804 	1.339226508530378e-12 	101324.9999999961
0.8621121121121116 	299.9999999999683 	1.615798676137719e-12 	101324.999999996
0.8646146146146139 	299.9999999999941 	7.59113112341161e-13 	101324.999999996
0.8671171171171166 	299.9999999999911 	4.870537883594828e-13 	101324.9999999961
0.8696196196196189 	299.9999999999821 	2.523570068170359e-13 	101324.9999999961
0.8721221221221216 	299.9999999999821 	2.270099053397962e-13 	101324.9999999962
0.874624624624624 	299.9999999999965 	6.388830626813376e-13 	101324.9999999963
0.8771271271271264 	300.0000000000013 	1.170198788792266e-12 	101324.9999999963
0.879629629629629 	299.9999999999991 	1.669088704926392e-12 	101324.9999999962
0.8821321321321317 	299.9999999999918 	1.828447171915033e-12 	101324.9999999962
0.8846346346346339 	299.9999999999694 	1.449053227605136e-12 	101324.9999999962
0.8871371371371364 	299.9999999999822 	9.857801851919766e-13 	101324.9999999963
0.8896396396396391 	299.9999999999807 	5.373722294508358e-13 	101324.9999999962
0.8921421421421414 	299.9999999999816 	3.237886646064924e-13 	101324.9999999962
0.8946446446446441 	299.9999999999931 	3.974628145434408e-13 	101324.9999999963
0.8971471471471464 	299.9999999999996 	7.182995209497515e-13 	101324.9999999962
0.8996496496496489 	299.999999999988 	1.268738932886102e-12 	101324.999999996
0.9021521521521517 	299.9999999999815 	5.205629653414668e-13 	101324.9999999959
0.9046546546546541 	299.9999999999906 	3.69597424909267e-13 	101324.9999999959
0.9071571571571564 	299.9999999999737 	9.122963267700182e-13 	101324.9999999958
0.9096596596596589 	299.9999999999774 	9.945061143637936e-13 	101324.9999999959
0.9121621621621616 	300.0000000000012 	1.382361927707364e-12 	101324.9999999959
0.9146646646646639 	299.9999999999905 	1.33376534190509e-12 	101324.9999999957
0.9171671671671666 	299.9999999999775 	1.408116284914751e-12 	101324.9999999957
0.9196696696696689 	299.9999999999993 	2.048600900458384e-12 	101324.9999999957
0.9221721721721714 	300.0000000000007 	1.556121013093806e-12 	101324.9999999959
0.9246746746746741 	299.9999999999769 	1.571019553669098e-12 	101324.9999999958
0.9271771771771765 	299.9999999999743 	1.241369362020619e-12 	101324.9999999957
0.9296796796796791 	299.999999999994 	2.512454889626084e-12 	101324.9999999958
0.9321821821821816 	299.9999999999903 	1.622624542908004e-12 	101324.9999999959
0.9346846846846838 	299.9999999999796 	1.779579601542897e-12 	101324.9999999961
0.9371871871871866 	300.000000000002 	1.581186532713849e-12 	101324.9999999962
0.9396896896896891 	300.0000000000067 	1.451019402969194e-12 	101324.9999999963
0.9421921921921914 	300.0000000000048 	1.871917946075397e-12 	101324.9999999963
0.9446946946946939 	299.9999999999823 	1.333703751354641e-12 	101324.9999999963
0.9471971971971965 	299.999999999966 	1.972794732277073e-12 	101324.9999999963
0.9496996996996991 	299.9999999999776 	1.38643572334471e-12 	101324.9999999964
0.9522022022022016 	299.9999999999834 	2.281773431137028e-12 	101324.9999999966
0.9547047047047038 	299.9999999999869 	1.98017158585521e-12 	101324.9999999966
0.9572072072072064 	299.9999999999849 	2.222366686998315e-12 	101324.9999999965
0.9597097097097093 	299.9999999999827 	1.804611352964048e-12 	101324.9999999964
0.9622122122122114 	299.999999999981 	1.415987562234839e-12 	101324.9999999962
0.964714714714714 	299.9999999999839 	1.798163927880842e-12 	101324.9999999962
0.9672172172172167 	299.9999999999856 	1.060223683643521e-12 	101324.9999999962
0.969719719719719 	299.9999999999952 	1.362403339353285e-12 	101324.9999999963
0.9722222222222214 	299.9999999999874 	1.268902435132582e-12 	101324.9999999964
0.9747247247247239 	299.9999999999828 	1.697329664542067e-12 	101324.9999999964
0.9772272272272267 	299.9999999999948 	1.607630402145762e-12 	101324.9999999964
0.9797297297297292 	299.999999999993 	1.540457788537202e-12 	101324.9999999964
0.9822322322322313 	300.0000000000002 	2.231286221054663e-12 	101324.9999999965
0.9847347347347344 	300.0000000000003 	1.888525221302626e-12 	101324.9999999966
0.9872372372372363 	299.9999999999831 	2.875003623673828e-12 	101324.9999999968
0.9897397397397389 	299.9999999999895 	2.097786174509161e-12 	101324.9999999968
0.9922422422422417 	299.9999999999793 	3.25693051003335e-12 	101324.9999999967
0.9947447447447441 	299.9999999999797 	3.013153753142588e-12 	101324.9999999966
0.9972472472472468 	299.999999999988 	3.704035557535788e-12 	101324.9999999966
0.999749749749749 	299.9999999999865 	3.304163064115376e-12 	101324.9999999967
1.002252252252252 	299.9999999999885 	3.437401655265641e-12 	101324.9999999966
1.004754754754754 	299.9999999999911 	3.464502196689358e-12 	101324.9999999967
1.007257257257256 	299.9999999999843 	3.259207997263047e-12 	101324.9999999967
1.009759759759759 	299.9999999999797 	4.392256340817883e-12 	101324.9999999968
1.012262262262261 	299.9999999999784 	3.274721992667933e-12 	101324.9999999968
1.014764764764764 	299.9999999999678 	3.90213382844956e-12 	101324.9999999968
1.017267267267267 	299.9999999999658 	3.561116400334012e-12 	101324.9999999968
1.019769769769769 	299.9999999999848 	4.0732623209101e-12 	101324.9999999968
1.022272272272272 	299.9999999999886 	3.761370204701206e-12 	101324.9999999968
1.024774774774774 	299.999999999986 	3.827256162410379e-12 	101324.9999999967
1.027277277277277 	299.9999999999857 	4.542357889859639e-12 	101324.9999999967
1.029779779779779 	299.9999999999995 	4.2465950857498e-12 	101324.9999999968
1.032282282282282 	299.9999999999987 	4.560133978957779e-12 	101324.9999999971
1.034784784784784 	299.9999999999948 	4.035957876813087e-12 	101324.9999999971
1.037287287287286 	299.9999999999837 	4.14500882963383e-12 	101324.9999999972
1.039789789789789 	299.9999999999889 	4.171582082201048e-12 	101324.9999999975
1.042292292292291 	300.0000000000055 	4.028744313077737e-12 	101324.9999999977
1.044794794794794 	300.0000000000067 	3.855641858891333e-12 	101324.9999999978
1.047297297297296 	300.0000000000133 	3.793339707612527e-12 	101324.9999999978
1.049799799799799 	299.9999999999949 	4.868273711382374e-12 	101324.9999999979
1.052302302302302 	299.9999999999815 	3.907646313938224e-12 	101324.9999999979
1.054804804804804 	299.9999999999753 	4.367857073034657e-12 	101324.9999999978
1.057307307307306 	299.9999999999687 	3.702447490260869e-12 	101324.9999999978
1.059809809809809 	299.9999999999828 	4.441938391538415e-12 	101324.9999999978
1.062312312312312 	299.9999999999791 	4.325636599332464e-12 	101324.9999999979
1.064814814814814 	299.9999999999772 	4.608752961046134e-12 	101324.9999999979
1.067317317317317 	299.9999999999693 	4.322949559924896e-12 	101324.9999999979
1.069819819819819 	299.9999999999676 	4.423781855883849e-12 	101324.999999998
1.072322322322321 	299.9999999999938 	5.58779086560656e-12 	101324.9999999981
1.074824824824824 	300.0000000000031 	4.500758611120316e-12 	101324.9999999981
1.077327327327327 	300.0000000000107 	5.127148160212916e-12 	101324.9999999981
1.079829829829829 	300.0000000000128 	3.960032007082915e-12 	101324.9999999981
1.082332332332332 	300.0000000000002 	4.177754736558772e-12 	101324.9999999981
1.084834834834834 	299.9999999999931 	3.958401057270013e-12 	101324.9999999982
1.087337337337337 	299.9999999999789 	4.37028706537878e-12 	101324.9999999981
1.089839839839839 	299.9999999999748 	5.287296336261049e-12 	101324.9999999979
1.092342342342342 	299.9999999999883 	4.516456416798246e-12 	101324.9999999977
1.094844844844844 	299.9999999999885 	5.13540783359716e-12 	101324.9999999977
1.097347347347347 	299.999999999978 	4.755060427842067e-12 	101324.9999999978
1.099849849849849 	299.9999999999729 	6.107895823770292e-12 	101324.9999999981
1.102352352352352 	299.9999999999811 	4.94080514692395e-12 	101324.9999999982
1.104854854854854 	299.9999999999894 	6.050519403163394e-12 	101324.9999999982
1.107357357357357 	299.9999999999862 	5.096037567609277e-12 	101324.9999999982
1.109859859859859 	299.9999999999822 	5.673833622003798e-12 	101324.9999999982
1.112362362362362 	300.000000000005 	5.158241307935805e-12 	101324.9999999983
1.114864864864865 	300.0000000000042 	5.170424543034778e-12 	101324.9999999984
1.117367367367367 	299.9999999999854 	5.837302948276901e-12 	101324.9999999983
1.119869869869869 	299.9999999999725 	5.101041241310864e-12 	101324.9999999983
1.122372372372372 	299.999999999986 	5.886710078269425e-12 	101324.9999999983
1.124874874874874 	299.9999999999886 	5.150321269916344e-12 	101324.9999999985
1.127377377377377 	299.9999999999941 	5.76092216880732e-12 	101324.9999999985
1.129879879879879 	300.0000000000083 	5.34488443379479e-12 	101324.9999999985
1.132382382382382 	300.0000000000125 	5.296396503603232e-12 	101324.9999999987
1.134884884884884 	300.0000000000023 	4.72529774043872e-12 	101324.9999999987
1.137387387387387 	300.000000000003 	4.774329541677914e-12 	101324.9999999986
1.139889889889889 	299.9999999999853 	5.603269515841288e-12 	101324.9999999985
1.142392392392392 	299.9999999999828 	5.243199577596595e-12 	101324.9999999984
1.144894894894894 	300.000000000005 	6.057068370550726e-12 	101324.9999999983
1.147397397397397 	299.9999999999983 	5.403324314713948e-12 	101324.9999999986
1.149899899899899 	299.9999999999769 	5.937626481373456e-12 	101324.9999999987
1.152402402402402 	299.9999999999714 	5.597673438253467e-12 	101324.9999999988
1.154904904904904 	299.9999999999823 	6.162482101175173e-12 	101324.9999999989
1.157407407407407 	299.9999999999862 	5.995742777017781e-12 	101324.9999999989
1.159909909909909 	299.999999999979 	6.130597582637043e-12 	101324.9999999991
1.162412412412412 	299.9999999999751 	6.910160055335235e-12 	101324.9999999991
1.164914914914914 	299.9999999999872 	6.196574009354168e-12 	101324.999999999
1.167417417417417 	299.9999999999841 	7.561785760491924e-12 	101324.9999999989
1.169919919919919 	299.9999999999989 	7.338748561724066e-12 	101324.9999999989
1.172422422422422 	300.000000000014 	7.704692565713363e-12 	101324.999999999
1.174924924924925 	299.9999999999941 	6.458975357016164e-12 	101324.9999999991
1.177427427427427 	299.9999999999846 	6.457529416985001e-12 	101324.9999999992
1.179929929929929 	300.000000000004 	6.741002785638823e-12 	101324.999999999
1.182432432432432 	300.0000000000157 	5.813887623463573e-12 	101324.9999999989
1.184934934934934 	300.0000000000039 	6.958043451292947e-12 	101324.9999999989
1.187437437437437 	299.9999999999899 	6.791221323225619e-12 	101324.999999999
1.189939939939939 	299.9999999999862 	7.195826949873046e-12 	101324.999999999
1.192442442442442 	299.9999999999749 	6.786561867856654e-12 	101324.9999999989
1.194944944944944 	299.9999999999766 	7.540178092791307e-12 	101324.9999999989
1.197447447447447 	299.9999999999986 	6.752912768507231e-12 	101324.9999999988
1.199949949949949 	300.0000000000034 	6.659031280418002e-12 	101324.999999999
1.202452452452452 	299.9999999999841 	7.179799299954373e-12 	101324.9999999991
1.204954954954955 	299.9999999999828 	6.562985414874112e-12 	101324.9999999992
1.207457457457457 	299.9999999999937 	7.378627318923007e-12 	101324.9999999992
1.20995995995996 	299.9999999999918 	6.679129677874492e-12 	101324.9999999992
1.212462462462462 	299.9999999999952 	6.695892947138711e-12 	101324.9999999993
1.214964964964964 	299.999999999994 	5.922448779519374e-12 	101324.9999999996
1.217467467467467 	299.999999999989 	6.660470293620891e-12 	101324.9999999996
1.219969969969969 	299.9999999999853 	6.433987915733401e-12 	101324.9999999995
1.222472472472472 	300.0000000000072 	7.163985253446974e-12 	101324.9999999994
1.224974974974975 	300.0000000000184 	7.707504189082643e-12 	101324.9999999994
1.227477477477477 	299.9999999999981 	6.881726734076057e-12 	101324.9999999994
1.229979979979979 	299.9999999999924 	7.792874596773112e-12 	101324.9999999993
1.232482482482482 	299.9999999999827 	6.989376980092644e-12 	101324.9999999994
1.234984984984984 	299.9999999999843 	7.806856065537199e-12 	101324.9999999995
1.237487487487487 	299.9999999999955 	6.991496176966856e-12 	101324.9999999995
1.239989989989989 	299.9999999999956 	7.818976780597341e-12 	101324.9999999997
1.242492492492492 	300.0000000000069 	8.520253509439844e-12 	101324.9999999998
1.244994994994994 	299.9999999999966 	7.89413560249903e-12 	101324.9999999997
1.247497497497497 	299.9999999999947 	8.814108036095056e-12 	101324.9999999997
1.249999999999999 	300 	8.286505405634822e-12 	101324.9999999998
