-1.25 	300 	0 	101372.5528258148
-1.247497497497497 	300.029551512866 	2.808003077181782 	101366.5012658695
-1.244994994994995 	300.0370516718506 	2.596254219625742 	101373.1869021433
-1.242492492492492 	300.0328317159417 	2.390019937573699 	101366.983240503
-1.23998998998999 	300.0376366093959 	2.193382843147621 	101372.6344692756
-1.237487487487487 	300.0340889665593 	2.002855578601927 	101367.5055667423
-1.234984984984985 	300.0388344668614 	1.824480532770654 	101373.1147974692
-1.232482482482482 	300.0351341873395 	1.645708112152115 	101368.0036110228
-1.22997997997998 	300.0391786827086 	1.481407254883148 	101372.7999313236
-1.227477477477477 	300.0358746310156 	1.31783328204067 	101368.3319457705
-1.224974974974975 	300.0394916540823 	1.170793590387213 	101372.6410524751
-1.222472472472472 	300.0364159234883 	1.023563633835346 	101368.5875084455
-1.21996996996997 	300.0395716581764 	0.8949840785959495 	101372.3645519786
-1.217467467467467 	300.0367950218936 	0.7646035626842588 	101368.7817449098
-1.214964964964965 	300.0396616185805 	0.6548711056804889 	101372.2230258638
-1.212462462462462 	300.0371161078014 	0.5416151316969181 	101369.006521704
-1.20995995995996 	300.039712901707 	0.4513390554957054 	101372.1277963033
-1.207457457457457 	300.0374826689691 	0.3560485206729097 	101369.3567413737
-1.204954954954955 	300.0396586383641 	0.2857747250243761 	101371.9731784857
-1.202452452452452 	300.0377810065331 	0.2089790812223338 	101369.6736205726
-1.19994994994995 	300.0394723299096 	0.1587444892698691 	101371.7051736541
-1.197447447447447 	300.0379741709692 	0.1297943298852676 	101369.8930807356
-1.194944944944945 	300.0391655741468 	0.09710416411365758 	101371.3199395368
-1.192442442442442 	300.0381259658886 	0.122667162712571 	101370.0751099807
-1.18993993993994 	300.0387632877224 	0.1039841105201745 	101370.8351251432
-1.187437437437437 	300.0382850669238 	0.1141123981910312 	101370.2668365486
-1.184934934934935 	300.0382785305539 	0.1106315547666757 	101370.2598131685
-1.182432432432432 	300.0381990125948 	0.1106416011706597 	101370.1657508087
-1.17992992992993 	300.0381190154899 	0.1104123806377195 	101370.0711667992
-1.177427427427427 	300.0380375354399 	0.1101757315015433 	101369.9748114651
-1.174924924924925 	300.037953295378 	0.1099313565229619 	101369.8751923766
-1.172422422422422 	300.0378649383102 	0.1096750146811313 	101369.7707048205
-1.16991991991992 	300.0377710226195 	0.1094025634958232 	101369.6596441149
-1.167417417417417 	300.0376701040499 	0.1091098594610249 	101369.54030229
-1.164914914914915 	300.0375608451154 	0.1087930735853247 	101369.4110976381
-1.162412412412412 	300.0374421402664 	0.1084490569005405 	101369.2707228059
-1.15990990990991 	300.0373132606869 	0.1080757544588888 	101369.1183159309
-1.157407407407407 	300.037174002772 	0.1076726042993984 	101368.9536361839
-1.154904904904904 	300.0370247635523 	0.1072407424645631 	101368.7771530981
-1.152402402402403 	300.0368664986116 	0.106782874721144 	101368.5899967328
-1.1498998998999 	300.0367005501155 	0.1063027971301462 	101368.3937542534
-1.147397397397397 	300.0365283979615 	0.1058047066934509 	101368.1901757299
-1.144894894894895 	300.0363514130848 	0.1052924965895663 	101367.9808824591
-1.142392392392392 	300.0361706434156 	0.1047691447854917 	101367.7671137627
-1.13988988988989 	300.0359866493612 	0.104236222196652 	101367.5495323556
-1.137387387387387 	300.0357993670496 	0.1036935354442692 	101367.3280628114
-1.134884884884885 	300.035608100164 	0.1031391676854194 	101367.1018817817
-1.132382382382382 	300.0354117929638 	0.1025702516914262 	101366.8697407963
-1.12987987987988 	300.035209546161 	0.1019843886721798 	101366.6305764522
-1.127377377377377 	300.0350011532181 	0.1013810156712813 	101366.3841444499
-1.124874874874875 	300.0347871718348 	0.1007614801735021 	101366.1311043042
-1.122372372372372 	300.0345682062565 	0.1001270960001023 	101365.8721706597
-1.11986986986987 	300.0343437520892 	0.09947610112266836 	101365.6067472107
-1.117367367367367 	300.0341114347679 	0.09880181887393596 	101365.3320261337
-1.114864864864865 	300.0338675915492 	0.09809443548973969 	101365.0436761982
-1.112362362362362 	300.0336093931678 	0.09734670454693187 	101364.7383515778
-1.10985985985986 	300.0333373538863 	0.09656058110764779 	101364.4166601489
-1.107357357357357 	300.0330565230682 	0.09575017921740461 	101364.0845726277
-1.104854854854855 	300.0327750633281 	0.09493770102963842 	101363.7517414702
-1.102352352352353 	300.032500412178 	0.09414316723605806 	101363.4269619655
-1.09984984984985 	300.0322352453473 	0.0933736979975245 	101363.1133986145
-1.097347347347347 	300.0319758053378 	0.09261907088444853 	101362.8066085986
-1.094844844844845 	300.0317136889163 	0.09185658946113731 	101362.4966552011
-1.092342342342342 	300.0314402252591 	0.09106274896107697 	101362.1732848989
-1.08983983983984 	300.0311507537001 	0.09022462229730477 	101361.8309860847
-1.087337337337337 	300.0308461872771 	0.0893442714807749 	101361.4708381521
-1.084834834834835 	300.0305314825852 	0.08843482552317979 	101361.0987022007
-1.082332332332332 	300.0302123523436 	0.08751164395690081 	101360.7213336484
-1.07982982982983 	300.0298921071165 	0.08658386951671697 	101360.3426475477
-1.077327327327327 	300.0295704430756 	0.08565102933398684 	101359.9622849536
-1.074824824824825 	300.029244470406 	0.08470547928846721 	101359.5768288368
-1.072322322322323 	300.0289106622943 	0.08373765884400163 	101359.1821087659
-1.06981981981982 	300.0285666430848 	0.08274108537623669 	101358.7753154956
-1.067317317317317 	300.0282122392672 	0.08171515177512279 	101358.356243858
-1.064814814814815 	300.0278492119568 	0.08066449798407874 	101357.9269762571
-1.062312312312312 	300.0274800691535 	0.0795960391887672 	101357.4904783553
-1.05980980980981 	300.0271070997947 	0.07851620986459448 	101357.0494568874
-1.057307307307307 	300.0267317990971 	0.07742915833507262 	101356.6056800338
-1.054804804804805 	300.0263544139309 	0.07633566911862347 	101356.1594398072
-1.052302302302302 	300.0259741530219 	0.07523383549753453 	101355.7098006365
-1.0497997997998 	300.0255901634574 	0.07412142669795634 	101355.2557539931
-1.047297297297297 	300.0252021574718 	0.07299750921218433 	101354.7969596188
-1.044794794794795 	300.024810203301 	0.07186217158266596 	101354.3334982817
-1.042292292292292 	300.0244144435176 	0.07071582205921152 	101353.8655385702
-1.03978978978979 	300.0240150389169 	0.0695588326862456 	101353.3932706725
-1.037287287287287 	300.0236119291601 	0.06839095159546313 	101352.9166232761
-1.034784784784785 	300.0232046765708 	0.06721112159723523 	101352.4350789252
-1.032282282282283 	300.0227930168325 	0.06601890094145159 	101351.9483250918
-1.02977977977978 	300.0223776676885 	0.06481636236113157 	101351.4572104131
-1.027277277277277 	300.0219602986823 	0.06360794593567133 	101350.9637090131
-1.024774774774775 	300.0215425054169 	0.06239786274539272 	101350.469707586
-1.022272272272272 	300.0211247326072 	0.06118730086084784 	101349.9757320998
-1.01976976976977 	300.02070599354 	0.05997358742871155 	101349.4806159885
-1.017267267267267 	300.0202843397074 	0.05875130341859705 	101348.9820554232
-1.014764764764765 	300.0198574697465 	0.05751396495786894 	101348.4773293068
-1.012262262262262 	300.0194232863231 	0.05625589308583506 	101347.9639577636
-1.00975975975976 	300.0189810169819 	0.05497555304836335 	101347.4410273322
-1.007257257257257 	300.0185330202382 	0.05368005797641263 	101346.911326441
-1.004754754754755 	300.0180853580278 	0.05238581598481227 	101346.382022488
-1.002252252252252 	300.017644658165 	0.05110978674813029 	101345.8609523131
-0.9997497497497498 	300.0172123170555 	0.04985481423569918 	101345.3497674804
-0.9972472472472473 	300.0167815276318 	0.04860278388979507 	101344.8404199691
-0.9947447447447449 	300.0163415549826 	0.04732599040042539 	101344.3202171633
-0.9922422422422421 	300.0158865220462 	0.0460093621470749 	101343.7822096719
-0.9897397397397399 	300.0154204066622 	0.04466290999046636 	101343.231100254
-0.9872372372372376 	300.0149531194982 	0.04331190988080471 	101342.6786068239
-0.9847347347347346 	300.014491648474 	0.04197470685419041 	101342.1329920111
-0.9822322322322323 	300.0140351151452 	0.04064997556565847 	101341.5932176215
-0.9797297297297296 	300.0135778364823 	0.0393238481152325 	101341.0525644456
-0.9772272272272275 	300.0131159843663 	0.03798638665206781 	101340.5065060973
-0.9747247247247248 	300.0126506111368 	0.03663951129036116 	101339.9562865761
-0.9722222222222224 	300.0121848382514 	0.03529055002086775 	101339.4055965726
-0.9697197197197196 	300.0117194931715 	0.03394163193645433 	101338.8554145756
-0.9672172172172175 	300.011252402129 	0.03258779042464752 	101338.3031706031
-0.9647147147147147 	300.0107817649229 	0.0312250853187926 	101337.7467360905
-0.9622122122122124 	300.0103093896707 	0.02985845063869219 	101337.1882485595
-0.9597097097097099 	300.0098398782483 	0.02849953651825451 	101336.6331487887
-0.9572072072072073 	300.0093762816509 	0.02715576856158589 	101336.0850442512
-0.9547047047047047 	300.0089164697524 	0.02582125326696747 	101335.5414168199
-0.9522022022022023 	300.0084539049518 	0.02447892639641605 	101334.9945373802
-0.9496996996996998 	300.0079825769337 	0.02311340304798462 	101334.4372997206
-0.9471971971971973 	300.0075022973463 	0.02172472989917167 	101333.8694806645
-0.9446946946946947 	300.0070201959443 	0.02033219564614626 	101333.2995091985
-0.9421921921921923 	300.0065470814627 	0.01896468227677091 	101332.740164007
-0.93968968968969 	300.0060910202533 	0.01764364480286839 	101332.2009820226
-0.9371871871871872 	300.0056522712449 	0.01636954186793596 	101331.682269934
-0.9346846846846848 	300.0052225243273 	0.01511965278829923 	101331.1742034925
-0.9321821821821823 	300.0047885769748 	0.0138579287806426 	101330.6611740517
-0.9296796796796799 	300.0043383154663 	0.01255131533659837 	101330.1288599968
-0.9271771771771771 	300.0038662039892 	0.01118488535106792 	101329.5707161943
-0.9246746746746748 	300.00337614327 	0.009769769368749759 	101328.9913536189
-0.9221721721721724 	300.0028808370445 	0.008341449740264625 	101328.405790524
-0.9196696696696698 	300.002398180032 	0.00694993884973184 	101327.8351822735
-0.9171671671671672 	300.0019463936567 	0.005646621310812808 	101327.3010704581
-0.9146646646646649 	300.0015401308444 	0.004473332398345495 	101326.8207778371
-0.9121621621621623 	300.0011885563883 	0.003456592016439016 	101326.4051391156
-0.9096596596596597 	300.0008951018972 	0.002606644312436064 	101326.0582110902
-0.9071571571571573 	300.0006583008739 	0.001919691082822612 	101325.778259846
-0.9046546546546547 	300.0004731608184 	0.001381729937167618 	101325.5593831618
-0.9021521521521524 	300.0003326326022 	0.0009727287662843554 	101325.3932474933
-0.8996496496496498 	300.0002288902329 	0.0006702985947059684 	101325.2706007219
-0.8971471471471473 	300.0001542835573 	0.000452453461895245 	101325.1823987537
-0.894644644644645 	300.0001019414752 	0.0002993752611805464 	101325.120518506
-0.892142142142142 	300.0000660714988 	0.0001943059477047409 	101325.0781119653
-0.8896396396396397 	300.0000420325669 	0.0001237827690347581 	101325.0496923896
-0.8871371371371374 	300.0000262618939 	7.744581736873514e-05 	101325.0310478137
-0.8846346346346349 	300.0000161242573 	4.761500644671121e-05 	101325.0190627595
-0.8821321321321324 	300.0000097336802 	2.878243893595998e-05 	101325.0115075839
-0.8796296296296297 	300.0000057800828 	1.711454831245599e-05 	101325.0068334878
-0.8771271271271271 	300.0000033779542 	1.001522240191689e-05 	101325.0039935946
-0.8746246246246248 	300.0000019437113 	5.770386198534503e-06 	101325.0022979484
-0.8721221221221224 	300.0000011016544 	3.274752323812526e-06 	101325.001302422
-0.8696196196196196 	300.0000006152507 	1.831270195989304e-06 	101325.0007273922
-0.8671171171171175 	300.0000003387188 	1.009455063112074e-06 	101325.000400453
-0.8646146146146148 	300.0000001838561 	5.487020849573748e-07 	101325.0002173963
-0.8621121121121121 	300.00000009846 	2.942006833809962e-07 	101325.0001164165
-0.8596096096096097 	300.0000000520452 	1.556498077432708e-07 	101325.0000615137
-0.857107107107107 	300.0000000271212 	8.127935972995309e-08 	101325.0000320813
-0.8546046046046049 	300.0000000139698 	4.190545851718408e-08 	101325.0000165183
-0.8521021021021022 	300.0000000071136 	2.13373291614656e-08 	101325.0000083987
-0.8495995995995997 	300.0000000035679 	1.073389159415765e-08 	101325.0000042176
-0.8470970970970974 	300.0000000017338 	5.335297316665845e-09 	101325.0000020918
-0.8445945945945946 	300.0000000008441 	2.622108915668522e-09 	101325.0000010242
-0.8420920920920922 	300.0000000004299 	1.273117502507542e-09 	101325.0000004946
-0.8395895895895897 	300.0000000002009 	6.131705656232268e-10 	101325.000000235
-0.8370870870870872 	300.0000000000956 	2.909435193508601e-10 	101325.0000001092
-0.8345845845845846 	300.0000000000508 	1.379848548324263e-10 	101325.0000000489
-0.8320820820820823 	299.9999999999955 	6.476703959534314e-11 	101325.0000000204
-0.8295795795795798 	299.999999999958 	3.052005773493325e-11 	101325.000000007
-0.8270770770770772 	299.9999999999739 	1.443114709742393e-11 	101325.0000000009
-0.8245745745745746 	299.9999999999586 	6.267421441345242e-12 	101324.9999999982
-0.8220720720720721 	299.9999999999696 	3.182810465451682e-12 	101324.9999999969
-0.8195695695695699 	299.999999999993 	1.022268509517396e-12 	101324.9999999961
-0.817067067067067 	299.9999999999728 	1.576352175753296e-12 	101324.9999999956
-0.8145645645645651 	299.999999999957 	1.098540766852753e-12 	101324.9999999956
-0.8120620620620621 	299.9999999999901 	1.641481365816466e-12 	101324.9999999956
-0.8095595595595597 	300.000000000003 	1.736500634520596e-12 	101324.9999999956
-0.8070570570570572 	299.9999999999672 	8.941600343216909e-13 	101324.9999999955
-0.8045545545545546 	299.9999999999663 	1.074674627363855e-12 	101324.9999999957
-0.8020520520520523 	299.9999999999924 	1.806893292778488e-12 	101324.9999999958
-0.7995495495495494 	300.0000000000107 	3.191480353356114e-12 	101324.9999999956
-0.7970470470470474 	299.9999999999976 	2.532886363217083e-12 	101324.9999999955
-0.7945445445445446 	300.0000000000027 	3.969173330752608e-12 	101324.9999999955
-0.7920420420420423 	300.000000000008 	3.138684513897246e-12 	101324.9999999954
-0.7895395395395397 	300.0000000000067 	4.49222724142636e-12 	101324.9999999956
-0.7870370370370371 	300.0000000000027 	2.645319206180085e-12 	101324.9999999956
-0.7845345345345348 	299.9999999999817 	4.320117613809232e-12 	101324.9999999955
-0.7820320320320323 	299.9999999999834 	2.548645917679878e-12 	101324.9999999956
-0.7795295295295296 	299.9999999999586 	4.837442802149171e-12 	101324.9999999957
-0.7770270270270272 	299.9999999999468 	3.503030361256508e-12 	101324.9999999956
-0.7745245245245247 	299.9999999999454 	4.002627540060735e-12 	101324.9999999955
-0.7720220220220222 	299.9999999999687 	3.01688327848406e-12 	101324.9999999954
-0.7695195195195199 	299.999999999972 	3.574433070951734e-12 	101324.9999999955
-0.767017017017017 	299.9999999999885 	2.976453511414384e-12 	101324.9999999957
-0.7645145145145147 	300.0000000000063 	4.483576642954522e-12 	101324.9999999959
-0.7620120120120122 	300.0000000000105 	3.783896137535517e-12 	101324.9999999959
-0.7595095095095097 	299.9999999999598 	5.268541642552359e-12 	101324.999999996
-0.7570070070070072 	299.9999999999636 	5.56805424891938e-12 	101324.9999999961
-0.7545045045045048 	299.9999999999929 	5.207448002854833e-12 	101324.999999996
-0.7520020020020022 	299.9999999999789 	5.167007879246302e-12 	101324.9999999961
-0.7494994994994997 	299.9999999999739 	3.741967875087453e-12 	101324.999999996
-0.7469969969969972 	299.9999999999936 	3.396980378305902e-12 	101324.999999996
-0.7444944944944945 	299.9999999999898 	1.756506333634512e-12 	101324.9999999959
-0.7419919919919924 	299.9999999999927 	1.951658249771507e-12 	101324.9999999959
-0.7394894894894897 	299.9999999999728 	1.189080854653847e-12 	101324.9999999959
-0.7369869869869872 	299.9999999999915 	2.278476727946375e-13 	101324.9999999957
-0.7344844844844846 	299.9999999999795 	2.647406295336544e-14 	101324.9999999956
-0.7319819819819822 	300.0000000000029 	1.205621292794697e-12 	101324.9999999958
-0.7294794794794797 	299.9999999999972 	1.566174135604616e-12 	101324.9999999961
-0.7269769769769773 	300.0000000000047 	8.587728056931151e-13 	101324.9999999961
-0.7244744744744747 	300.0000000000092 	1.05179010554486e-12 	101324.9999999962
-0.721971971971972 	299.9999999999724 	9.967579856465e-13 	101324.9999999961
-0.7194694694694695 	299.999999999991 	1.367753990921086e-12 	101324.999999996
-0.7169669669669674 	299.9999999999616 	1.585499657704853e-12 	101324.9999999958
-0.7144644644644647 	299.9999999999834 	1.493100708433471e-12 	101324.9999999956
-0.711961961961962 	300.0000000000026 	1.570656349483977e-12 	101324.9999999954
-0.7094594594594597 	300.0000000000043 	6.444933950108351e-13 	101324.9999999954
-0.7069569569569573 	300.0000000000146 	1.415891064670397e-12 	101324.9999999953
-0.7044544544544545 	300.0000000000175 	7.454135668288923e-13 	101324.9999999949
-0.7019519519519523 	300.0000000000048 	9.235568211896639e-13 	101324.9999999949
-0.6994494494494495 	299.9999999999581 	1.076433564740002e-12 	101324.9999999951
-0.6969469469469471 	299.9999999999646 	1.665819272084901e-12 	101324.9999999954
-0.6944444444444446 	299.9999999999767 	1.679966476104664e-12 	101324.9999999956
-0.6919419419419421 	300.0000000000151 	1.646583610644538e-12 	101324.9999999958
-0.6894394394394396 	299.9999999999954 	1.081200357755557e-12 	101324.9999999958
-0.6869369369369374 	300.0000000000047 	1.63830890896821e-12 	101324.999999996
-0.6844344344344344 	300.0000000000123 	1.522484144129503e-12 	101324.9999999962
-0.6819319319319321 	299.9999999999763 	2.509349144253646e-12 	101324.9999999963
-0.6794294294294296 	299.9999999999645 	2.650500953916329e-12 	101324.9999999963
-0.6769269269269272 	299.9999999999479 	3.116598566349763e-12 	101324.9999999962
-0.6744244244244245 	299.9999999999788 	3.120091653902213e-12 	101324.9999999962
-0.6719219219219222 	299.9999999999745 	2.739995932167039e-12 	101324.9999999963
-0.6694194194194195 	299.9999999999976 	3.127683733221336e-12 	101324.9999999963
-0.6669169169169172 	300.0000000000091 	2.439263665616768e-12 	101324.999999996
-0.6644144144144146 	299.9999999999762 	2.559375365326891e-12 	101324.9999999958
-0.661911911911912 	299.99999999998 	1.597573592579426e-12 	101324.9999999956
-0.6594094094094097 	299.9999999999866 	1.47350011653187e-12 	101324.9999999957
-0.656906906906907 	299.9999999999633 	6.161301605919978e-13 	101324.9999999958
-0.6544044044044046 	299.9999999999643 	1.116235466755789e-12 	101324.9999999958
-0.6519019019019021 	299.9999999999897 	1.152053113054628e-12 	101324.9999999958
-0.6493993993993996 	300.0000000000139 	1.694301000071634e-12 	101324.999999996
-0.6468968968968971 	300.0000000000186 	1.652506704028128e-12 	101324.9999999961
-0.6443943943943946 	299.9999999999969 	2.881317633399293e-12 	101324.9999999961
-0.6418918918918921 	299.9999999999968 	9.615237000789146e-13 	101324.999999996
-0.6393893893893897 	299.9999999999996 	1.757168696955131e-12 	101324.9999999961
-0.6368868868868871 	299.9999999999862 	1.133562990156516e-12 	101324.9999999961
-0.6343843843843846 	299.9999999999948 	1.458898667570574e-12 	101324.9999999961
-0.6318818818818821 	299.9999999999727 	1.006077685472913e-12 	101324.999999996
-0.6293793793793795 	300.0000000000015 	9.829473905548225e-13 	101324.9999999958
-0.6268768768768773 	300.0000000000099 	1.086107974953349e-12 	101324.9999999957
-0.6243743743743745 	299.9999999999857 	6.662460943870027e-13 	101324.9999999958
-0.6218718718718721 	300.0000000000027 	1.477104835479309e-12 	101324.9999999961
-0.6193693693693696 	299.9999999999623 	7.183879650797732e-13 	101324.9999999961
-0.6168668668668671 	299.9999999999902 	1.695133349951047e-12 	101324.999999996
-0.6143643643643645 	300.0000000000103 	9.973132620297654e-13 	101324.9999999959
-0.6118618618618621 	299.9999999999924 	1.849879010183469e-12 	101324.9999999961
-0.6093593593593596 	299.9999999999918 	1.655099987127734e-12 	101324.9999999961
-0.6068568568568571 	299.9999999999927 	2.241363547560194e-12 	101324.9999999963
-0.6043543543543546 	299.9999999999772 	2.030612189607844e-12 	101324.9999999962
-0.6018518518518521 	299.9999999999822 	2.293998717453965e-12 	101324.9999999963
-0.5993493493493496 	299.9999999999663 	1.117529858512033e-12 	101324.9999999964
-0.5968468468468471 	299.9999999999733 	1.784827185822053e-12 	101324.9999999965
-0.5943443443443446 	299.9999999999964 	9.625472821920951e-13 	101324.9999999964
-0.591841841841842 	299.9999999999754 	2.234817465943781e-12 	101324.9999999962
-0.5893393393393397 	299.9999999999702 	1.049448696498253e-12 	101324.9999999962
-0.5868368368368371 	299.9999999999953 	2.797783916486707e-12 	101324.9999999962
-0.5843343343343346 	300.0000000000043 	1.644514528454669e-12 	101324.9999999964
-0.5818318318318321 	300.000000000021 	2.63343131839143e-12 	101324.9999999963
-0.5793293293293297 	299.9999999999919 	1.284736754940192e-12 	101324.9999999961
-0.5768268268268271 	300.0000000000032 	1.928135950667769e-12 	101324.9999999962
-0.5743243243243245 	300.0000000000152 	1.001797347075379e-12 	101324.9999999963
-0.5718218218218221 	300.0000000000144 	7.701672026377336e-13 	101324.9999999964
-0.5693193193193196 	300.0000000000264 	2.994664726636091e-13 	101324.9999999964
-0.5668168168168171 	299.9999999999909 	3.338651056056786e-13 	101324.9999999963
-0.5643143143143147 	299.9999999999701 	1.246877167637282e-12 	101324.9999999962
-0.5618118118118121 	300.000000000008 	5.705438605515886e-13 	101324.9999999961
-0.5593093093093094 	300.0000000000198 	9.787360110035631e-13 	101324.999999996
-0.5568068068068072 	300.0000000000108 	8.252473654460912e-13 	101324.9999999958
-0.5543043043043046 	300.0000000000097 	7.195332177721902e-13 	101324.9999999958
-0.551801801801802 	299.9999999999736 	4.408722779474835e-13 	101324.9999999959
-0.5492992992992995 	299.9999999999995 	7.037111584202129e-13 	101324.9999999959
-0.5467967967967969 	300.0000000000093 	6.105050757209868e-13 	101324.9999999958
-0.5442942942942947 	300.000000000003 	4.131759100575336e-13 	101324.999999996
-0.5417917917917919 	299.9999999999751 	6.925782304634084e-13 	101324.9999999961
-0.5392892892892895 	299.9999999999593 	5.18849650024887e-13 	101324.999999996
-0.536786786786787 	299.9999999999731 	4.553456282573132e-13 	101324.999999996
-0.5342842842842846 	299.9999999999779 	1.198350386280936e-12 	101324.9999999958
-0.531781781781782 	299.9999999999621 	9.313868444471763e-13 	101324.9999999958
-0.5292792792792794 	299.9999999999594 	1.806389803031788e-12 	101324.9999999957
-0.526776776776777 	299.9999999999484 	1.534000333277606e-12 	101324.9999999956
-0.5242742742742745 	299.9999999999884 	4.044583516314131e-12 	101324.9999999955
-0.521771771771772 	300.0000000000093 	2.143863714699694e-12 	101324.9999999955
-0.5192692692692695 	299.9999999999771 	5.373468978837616e-12 	101324.9999999953
-0.516766766766767 	300.0000000000014 	2.690136263519528e-12 	101324.9999999954
-0.5142642642642645 	299.999999999979 	4.444029974407837e-12 	101324.9999999955
-0.511761761761762 	299.9999999999727 	1.868361137213822e-12 	101324.9999999956
-0.5092592592592596 	299.9999999999839 	3.529060965501172e-12 	101324.9999999956
-0.506756756756757 	299.9999999999681 	1.090870857269927e-12 	101324.9999999956
-0.5042542542542544 	299.9999999999984 	2.848927677338512e-12 	101324.9999999958
-0.5017517517517521 	300.0000000000182 	1.150891731155895e-12 	101324.9999999959
-0.4992492492492494 	300.0000000000194 	1.955788820590601e-12 	101324.9999999961
-0.496746746746747 	299.9999999999931 	8.06867976268677e-13 	101324.999999996
-0.4942442442442445 	299.999999999964 	1.895052493367442e-12 	101324.999999996
-0.4917417417417421 	299.9999999999645 	1.783109457083352e-12 	101324.9999999961
-0.4892392392392395 	299.9999999999743 	2.643617359767944e-12 	101324.999999996
-0.486736736736737 	299.9999999999748 	1.708909406655283e-12 	101324.999999996
-0.4842342342342345 	299.9999999999534 	2.707803345239331e-12 	101324.9999999958
-0.481731731731732 	300.0000000000186 	1.020082753664661e-12 	101324.9999999957
-0.4792292292292296 	300.0000000000117 	2.050520951779252e-12 	101324.9999999955
-0.4767267267267268 	299.9999999999766 	1.879737260109065e-12 	101324.9999999955
-0.4742242242242246 	300.0000000000016 	2.514024412721646e-12 	101324.9999999956
-0.471721721721722 	299.9999999999763 	1.859671385072765e-12 	101324.9999999958
-0.4692192192192195 	299.9999999999891 	1.707906402418504e-12 	101324.9999999958
-0.4667167167167169 	299.9999999999505 	1.324721404209401e-12 	101324.9999999958
-0.4642142142142145 	299.9999999999969 	1.205576597548848e-12 	101324.999999996
-0.461711711711712 	300.0000000000104 	9.548630942604397e-13 	101324.999999996
-0.4592092092092094 	300.0000000000047 	9.565921825517586e-13 	101324.9999999962
-0.456706706706707 	300.0000000000308 	4.626041402512639e-13 	101324.9999999964
-0.4542042042042045 	299.9999999999681 	5.36166190498459e-13 	101324.9999999967
-0.451701701701702 	299.9999999999737 	1.831764960301524e-13 	101324.9999999965
-0.4491991991991995 	299.9999999999777 	5.336759821517689e-13 	101324.9999999964
-0.4466966966966969 	299.9999999999766 	6.713715078342812e-13 	101324.9999999964
-0.4441941941941945 	299.9999999999976 	6.671963265216606e-13 	101324.9999999963
-0.441691691691692 	299.9999999999776 	1.474073210128749e-12 	101324.9999999962
-0.4391891891891895 	299.9999999999928 	1.955772764192753e-12 	101324.9999999961
-0.436686686686687 	299.9999999999835 	2.514263754471013e-12 	101324.9999999961
-0.4341841841841846 	299.9999999999989 	2.398331897026659e-12 	101324.999999996
-0.431681681681682 	299.9999999999735 	1.737731458231708e-12 	101324.9999999958
-0.4291791791791794 	299.9999999999616 	1.9378363705515e-12 	101324.9999999955
-0.426676676676677 	299.9999999999507 	7.986688474452013e-13 	101324.9999999955
-0.4241741741741744 	299.9999999999828 	1.672669227251283e-12 	101324.9999999955
-0.421671671671672 	300.000000000003 	5.33359556978813e-13 	101324.9999999954
-0.4191691691691694 	300.0000000000274 	1.390888368580512e-12 	101324.9999999952
-0.4166666666666669 	300.0000000000317 	4.728412839913657e-13 	101324.999999995
-0.4141641641641645 	299.999999999964 	5.876815030767302e-13 	101324.9999999949
-0.411661661661662 	300 	6.352917491693429e-13 	101324.9999999951
-0.4091591591591594 	300.0000000000067 	1.617599153343536e-13 	101324.9999999953
-0.406656656656657 	299.9999999999723 	2.559803909709701e-13 	101324.9999999954
-0.4041541541541545 	300.0000000000086 	5.42372554017465e-13 	101324.9999999956
-0.401651651651652 	299.9999999999592 	1.183711379871241e-12 	101324.9999999958
-0.3991491491491494 	300.0000000000044 	1.38491316058916e-12 	101324.9999999957
-0.396646646646647 	299.9999999999741 	2.345418173391559e-12 	101324.9999999956
-0.3941441441441444 	299.9999999999885 	2.165884779845202e-12 	101324.9999999958
-0.3916416416416419 	299.9999999999636 	1.97885580112767e-12 	101324.9999999956
-0.3891391391391395 	299.9999999999751 	1.750156335799899e-12 	101324.9999999957
-0.3866366366366368 	299.9999999999758 	1.035559273931328e-12 	101324.9999999956
-0.3841341341341344 	300.0000000000006 	1.335122976229507e-12 	101324.9999999957
-0.381631631631632 	299.9999999999711 	8.217749716312344e-13 	101324.9999999957
-0.3791291291291294 	300.0000000000004 	1.007157445697338e-12 	101324.9999999957
-0.3766266266266269 	300.0000000000121 	5.608759513424606e-13 	101324.9999999956
-0.3741241241241244 	300.0000000000131 	9.584437335003001e-13 	101324.9999999956
-0.371621621621622 	300.0000000000123 	5.910211345482473e-13 	101324.9999999954
-0.3691191191191194 	300.0000000000041 	2.311797487038975e-12 	101324.9999999955
-0.366616616616617 	300.0000000000031 	1.0733686094551e-12 	101324.9999999952
-0.3641141141141143 	299.9999999999857 	2.100219973306357e-12 	101324.9999999952
-0.3616116116116119 	299.9999999999679 	9.379350417788584e-13 	101324.9999999954
-0.3591091091091095 	299.9999999999869 	1.343592409939157e-12 	101324.9999999953
-0.356606606606607 	299.9999999999912 	6.886239913081163e-13 	101324.9999999953
-0.3541041041041044 	299.9999999999959 	7.488715583155414e-13 	101324.9999999955
-0.3516016016016019 	300.0000000000114 	1.629012472070111e-12 	101324.9999999958
-0.3490990990990994 	299.9999999999973 	8.95303062440974e-13 	101324.999999996
-0.346596596596597 	300.0000000000177 	3.101937732075301e-12 	101324.9999999961
-0.3440940940940944 	300.0000000000206 	1.748616898935525e-12 	101324.9999999956
-0.3415915915915919 	300.0000000000164 	4.03391010946435e-12 	101324.9999999954
-0.3390890890890895 	299.9999999999897 	2.540719028800208e-12 	101324.9999999951
-0.3365865865865869 	300.0000000000093 	3.411423099947084e-12 	101324.9999999948
-0.3340840840840844 	299.9999999999945 	2.82672866405942e-12 	101324.999999995
-0.3315815815815819 	300.0000000000107 	3.324605400245103e-12 	101324.9999999951
-0.3290790790790794 	300.0000000000117 	3.441160474955603e-12 	101324.9999999954
-0.3265765765765769 	299.9999999999605 	3.309713329195683e-12 	101324.9999999955
-0.3240740740740744 	300.0000000000006 	2.188688132387658e-12 	101324.9999999953
-0.3215715715715718 	300.0000000000074 	3.279496111399101e-12 	101324.9999999954
-0.3190690690690695 	299.9999999999644 	2.713244767021578e-12 	101324.9999999955
-0.3165665665665668 	299.9999999999937 	3.858749499301992e-12 	101324.9999999955
-0.3140640640640644 	299.9999999999989 	2.412789195568558e-12 	101324.9999999955
-0.311561561561562 	299.99999999996 	4.156702886727757e-12 	101324.9999999955
-0.3090590590590593 	299.9999999999993 	1.063613575888112e-12 	101324.9999999955
-0.3065565565565568 	300.0000000000034 	4.928368064665555e-12 	101324.9999999956
-0.3040540540540545 	299.9999999999998 	1.304256244387522e-12 	101324.9999999955
-0.3015515515515518 	300.0000000000179 	4.573498448243406e-12 	101324.9999999954
-0.2990490490490494 	299.9999999999655 	2.577481767774447e-12 	101324.9999999955
-0.2965465465465469 	299.9999999999937 	4.003655227768106e-12 	101324.9999999953
-0.2940440440440444 	299.9999999999941 	3.416660506005579e-12 	101324.9999999954
-0.2915415415415418 	300.0000000000054 	3.284821865399858e-12 	101324.9999999953
-0.2890390390390395 	300.0000000000076 	3.4605035240672e-12 	101324.9999999952
-0.2865365365365368 	299.9999999999845 	2.096580192828067e-12 	101324.9999999952
-0.2840340340340343 	299.9999999999997 	3.93086733613596e-12 	101324.9999999954
-0.2815315315315318 	299.9999999999548 	1.922310058669258e-12 	101324.9999999955
-0.2790290290290295 	299.9999999999832 	3.36753575561557e-12 	101324.9999999956
-0.2765265265265269 	300.0000000000085 	2.530495882299846e-12 	101324.9999999956
-0.2740240240240244 	300.000000000011 	3.043289273858626e-12 	101324.9999999953
-0.2715215215215219 	300.0000000000077 	3.160663002713391e-12 	101324.9999999953
-0.2690190190190194 	299.9999999999691 	3.031193370837197e-12 	101324.9999999951
-0.2665165165165169 	299.999999999996 	3.28215139916154e-12 	101324.9999999952
-0.2640140140140144 	299.9999999999853 	2.089317435146661e-12 	101324.999999995
-0.2615115115115119 	299.9999999999965 	3.554059618762938e-12 	101324.9999999949
-0.2590090090090094 	299.9999999999587 	2.315084976666402e-12 	101324.9999999948
-0.2565065065065068 	299.9999999999962 	3.960928555472109e-12 	101324.9999999949
-0.2540040040040044 	299.9999999999928 	3.847615886332897e-12 	101324.9999999947
-0.2515015015015019 	300.0000000000159 	3.74567972898223e-12 	101324.999999995
-0.2489989989989994 	300.0000000000236 	5.569650408458492e-12 	101324.9999999949
-0.2464964964964968 	299.9999999999899 	4.417022469076858e-12 	101324.9999999946
-0.2439939939939944 	299.9999999999914 	6.801193515875179e-12 	101324.9999999949
-0.2414914914914919 	299.9999999999779 	3.754066550762604e-12 	101324.9999999948
-0.2389889889889893 	299.9999999999976 	6.522831154035589e-12 	101324.9999999948
-0.2364864864864869 	300.0000000000113 	3.934720676375249e-12 	101324.9999999949
-0.2339839839839843 	299.9999999999668 	6.696743831874968e-12 	101324.9999999946
-0.2314814814814819 	299.9999999999845 	3.218666553657966e-12 	101324.9999999946
-0.2289789789789792 	299.9999999999566 	5.329394581275404e-12 	101324.9999999944
-0.2264764764764769 	299.9999999999661 	3.674945671230649e-12 	101324.9999999942
-0.2239739739739743 	299.9999999999799 	5.194742454181414e-12 	101324.9999999943
-0.2214714714714718 	299.9999999999678 	4.651211999640207e-12 	101324.9999999945
-0.2189689689689693 	299.9999999999792 	3.816225093341941e-12 	101324.9999999946
-0.2164664664664669 	299.999999999987 	4.85359474234491e-12 	101324.9999999944
-0.2139639639639643 	299.9999999999616 	3.329494781963986e-12 	101324.9999999942
-0.2114614614614618 	299.9999999999822 	3.821856819757481e-12 	101324.9999999939
-0.2089589589589593 	299.9999999999969 	3.018608970542829e-12 	101324.999999994
-0.2064564564564568 	299.9999999999972 	2.938630470348444e-12 	101324.9999999943
-0.2039539539539543 	299.9999999999523 	3.860036670506918e-12 	101324.9999999944
-0.2014514514514518 	299.9999999999619 	1.805435236708953e-12 	101324.9999999942
-0.1989489489489494 	299.999999999984 	4.764237066698914e-12 	101324.9999999945
-0.1964464464464468 	300.0000000000002 	2.598883388257169e-12 	101324.9999999947
-0.1939439439439443 	299.9999999999969 	5.551573640844758e-12 	101324.9999999948
-0.1914414414414418 	299.9999999999592 	3.967530584757202e-12 	101324.9999999948
-0.1889389389389393 	299.9999999999989 	5.027725550552111e-12 	101324.9999999946
-0.1864364364364368 	300.0000000000165 	4.956971880384958e-12 	101324.9999999943
-0.1839339339339343 	299.9999999999847 	4.894357747980424e-12 	101324.9999999943
-0.1814314314314318 	299.9999999999935 	4.260000274015798e-12 	101324.9999999943
-0.1789289289289293 	299.9999999999437 	4.245372146904314e-12 	101324.9999999941
-0.1764264264264268 	299.9999999999875 	3.46883995250938e-12 	101324.9999999942
-0.1739239239239243 	299.9999999999451 	3.841642136055185e-12 	101324.9999999941
-0.1714214214214218 	299.9999999999917 	2.765862380470604e-12 	101324.9999999941
-0.1689189189189193 	299.9999999999709 	4.838114618742116e-12 	101324.999999994
-0.1664164164164168 	299.9999999999986 	2.526592993518668e-12 	101324.9999999941
-0.1639139139139143 	299.9999999999912 	6.188153006323751e-12 	101324.9999999941
-0.1614114114114118 	300.0000000000101 	1.634225422252613e-12 	101324.9999999943
-0.1589089089089093 	299.9999999999972 	8.076356508039822e-12 	101324.9999999946
-0.1564064064064068 	299.9999999999863 	9.357581747904331e-13 	101324.9999999945
-0.1539039039039043 	299.9999999999961 	8.562811313036977e-12 	101324.9999999948
-0.1514014014014018 	300.0000000000124 	1.60915703477535e-12 	101324.9999999948
-0.1488988988988993 	299.9999999999969 	7.788017416736701e-12 	101324.9999999946
-0.1463963963963968 	300.0000000000019 	1.946477835905404e-12 	101324.9999999945
-0.1438938938938943 	299.9999999999795 	6.5823122841159e-12 	101324.9999999945
-0.1413913913913918 	299.9999999999594 	2.754764858672931e-12 	101324.9999999947
-0.1388888888888893 	299.9999999999861 	4.610820064166093e-12 	101324.9999999947
-0.1363863863863868 	299.9999999999418 	3.218827735075758e-12 	101324.9999999946
-0.1338838838838843 	299.9999999999603 	3.910275022484161e-12 	101324.9999999944
-0.1313813813813818 	299.9999999999937 	2.840532887331787e-12 	101324.9999999946
-0.1288788788788793 	299.9999999999764 	3.403178361442828e-12 	101324.9999999945
-0.1263763763763768 	299.9999999999841 	2.549827028742131e-12 	101324.9999999946
-0.1238738738738743 	299.9999999999648 	3.781772798801186e-12 	101324.9999999945
-0.1213713713713717 	299.9999999999939 	2.125378738332224e-12 	101324.9999999946
-0.1188688688688693 	300.0000000000085 	4.596423197405983e-12 	101324.9999999946
-0.1163663663663668 	299.9999999999495 	1.907535125846273e-12 	101324.9999999948
-0.1138638638638643 	299.9999999999943 	4.888852104473731e-12 	101324.9999999948
-0.1113613613613618 	299.9999999999932 	1.393513663944753e-12 	101324.999999995
-0.1088588588588592 	299.9999999999887 	5.583394499319548e-12 	101324.9999999949
-0.1063563563563568 	299.9999999999775 	1.67173982642265e-12 	101324.9999999948
-0.1038538538538543 	299.9999999999901 	4.739175157929462e-12 	101324.9999999948
-0.1013513513513517 	300.0000000000071 	2.575689060717503e-12 	101324.9999999947
-0.09884884884884926 	299.9999999999727 	4.13276924558044e-12 	101324.9999999948
-0.09634634634634676 	299.9999999999476 	2.69227415660306e-12 	101324.9999999949
-0.09384384384384425 	299.999999999955 	3.000148845189056e-12 	101324.999999995
-0.09134134134134177 	300.000000000009 	2.295984568394344e-12 	101324.9999999951
-0.08883883883883925 	300.0000000000059 	3.231886366483243e-12 	101324.999999995
-0.08633633633633674 	299.9999999999735 	3.714518026375092e-12 	101324.999999995
-0.08383383383383426 	300.000000000003 	3.891272884158503e-12 	101324.9999999951
-0.08133133133133173 	299.9999999999843 	4.166665217202805e-12 	101324.9999999951
-0.07882882882882926 	299.9999999999414 	3.694047484367992e-12 	101324.9999999949
-0.07632632632632676 	299.9999999999774 	3.88130773779741e-12 	101324.999999995
-0.07382382382382424 	299.9999999999441 	4.545860297101806e-12 	101324.999999995
-0.07132132132132173 	300.0000000000074 	3.990996782610028e-12 	101324.9999999947
-0.06881881881881925 	299.9999999999803 	3.244776776856488e-12 	101324.9999999948
-0.06631631631631671 	299.9999999999438 	2.777720056834317e-12 	101324.9999999946
-0.06381381381381425 	299.9999999999775 	2.173345578368621e-12 	101324.9999999945
-0.06131131131131173 	299.9999999999779 	2.124974496365215e-12 	101324.9999999943
-0.05880880880880923 	299.9999999999584 	2.044865762264116e-12 	101324.9999999944
-0.05630630630630672 	299.9999999999822 	1.927040356983756e-12 	101324.9999999945
-0.05380380380380424 	300.0000000000071 	1.970280581341969e-12 	101324.9999999945
-0.05130130130130173 	300.0000000000069 	2.03746542917254e-12 	101324.9999999947
-0.04879879879879922 	299.9999999999706 	1.922575108977659e-12 	101324.9999999949
-0.04629629629629672 	299.9999999999629 	1.1797270098133e-12 	101324.9999999953
-0.04379379379379422 	299.9999999999538 	1.355250562012674e-12 	101324.9999999952
-0.04129129129129173 	299.9999999999902 	8.598599915564731e-13 	101324.9999999952
-0.03878878878878922 	299.9999999999902 	1.420742145264068e-12 	101324.9999999951
-0.03628628628628671 	299.9999999999909 	1.259668555642563e-12 	101324.9999999951
-0.03378378378378422 	299.9999999999603 	1.823633635979626e-12 	101324.999999995
-0.03128128128128172 	299.9999999999821 	8.312620886364243e-13 	101324.9999999949
-0.02877877877877922 	299.9999999999818 	1.041856932812525e-12 	101324.9999999948
-0.0262762762762767 	299.999999999947 	2.18853196051116e-13 	101324.999999995
-0.02377377377377422 	300.0000000000105 	9.872009589559412e-14 	101324.9999999949
-0.0212712712712717 	299.9999999999471 	1.57223922687454e-13 	101324.999999995
-0.01876876876876921 	299.9999999999842 	2.672698957948119e-13 	101324.9999999952
-0.01626626626626671 	300.0000000000063 	4.869531919045499e-13 	101324.9999999952
-0.0137637637637642 	299.9999999999794 	1.592306784253387e-14 	101324.9999999953
-0.0112612612612617 	300.0000000000072 	1.014544727272426e-13 	101324.9999999954
-0.008758758758759198 	299.999999999997 	1.705229730864053e-13 	101324.9999999955
-0.006256256256256697 	299.9999999999407 	1.061752510981081e-13 	101324.9999999955
-0.003753753753754195 	299.9999999999756 	4.209203364785468e-13 	101324.9999999956
-0.001251251251251693 	299.9999999999596 	5.551633409879911e-13 	101324.9999999955
0.00125125125125081 	299.9999999999749 	1.60549150772919e-12 	101324.9999999951
0.003753753753753312 	299.9999999999802 	1.176786809514248e-12 	101324.999999995
0.006256256256255817 	299.9999999999404 	1.121512662127963e-12 	101324.9999999951
0.008758758758758317 	299.9999999999944 	1.032536740079097e-12 	101324.9999999953
0.01126126126126082 	300.0000000000068 	1.154825871383057e-12 	101324.9999999953
0.01376376376376332 	299.9999999999807 	1.745116332209252e-12 	101324.9999999952
0.01626626626626582 	300.0000000000046 	1.918063817623468e-12 	101324.9999999951
0.01876876876876833 	299.9999999999775 	1.922084302564672e-12 	101324.9999999948
0.02127127127127083 	299.9999999999837 	2.33528056110692e-12 	101324.9999999953
0.02377377377377332 	299.9999999999981 	2.038841241983459e-12 	101324.9999999952
0.02627627627627583 	299.9999999999501 	1.658888388226346e-12 	101324.9999999949
0.02877877877877833 	300.0000000000019 	2.056526966394495e-12 	101324.9999999947
0.03128128128128083 	299.9999999999689 	1.551904474848538e-12 	101324.9999999949
0.03378378378378333 	299.9999999999468 	1.672748761917891e-12 	101324.9999999947
0.03628628628628584 	299.9999999999869 	1.055694285136822e-12 	101324.9999999946
0.03878878878878834 	299.9999999999903 	8.591659994625397e-13 	101324.999999995
0.04129129129129084 	299.9999999999866 	1.05767083446517e-12 	101324.999999995
0.04379379379379333 	299.9999999999662 	1.01588540768702e-12 	101324.999999995
0.04629629629629585 	299.9999999999413 	9.02004042909383e-13 	101324.9999999948
0.04879879879879834 	299.9999999999736 	1.13623998569012e-12 	101324.9999999947
0.05130130130130085 	300.0000000000059 	9.0862048312385e-13 	101324.9999999946
0.05380380380380335 	300.0000000000098 	1.298901800391659e-12 	101324.9999999947
0.05630630630630584 	299.9999999999935 	2.07362584952988e-12 	101324.9999999947
0.05880880880880836 	299.9999999999586 	2.286219558329062e-12 	101324.9999999949
0.06131131131131085 	299.9999999999855 	2.330963950878135e-12 	101324.9999999951
0.06381381381381336 	299.9999999999781 	2.087465869489776e-12 	101324.9999999952
0.06631631631631586 	299.9999999999403 	1.985843971764428e-12 	101324.9999999952
0.06881881881881835 	299.9999999999702 	2.562233496459181e-12 	101324.999999995
0.07132132132132088 	299.9999999999955 	2.422483591935014e-12 	101324.9999999954
0.07382382382382337 	299.9999999999498 	2.566322620044491e-12 	101324.9999999953
0.07632632632632587 	299.9999999999826 	3.585709663512589e-12 	101324.9999999953
0.07882882882882837 	299.999999999967 	3.531459430557227e-12 	101324.999999995
0.08133133133133086 	299.9999999999932 	3.555265334459426e-12 	101324.9999999949
0.08383383383383337 	299.9999999999936 	2.86607038248557e-12 	101324.9999999948
0.08633633633633589 	299.9999999999498 	3.010167814663659e-12 	101324.9999999951
0.08883883883883838 	300.0000000000042 	3.365179252524283e-12 	101324.999999995
0.09134134134134086 	299.9999999999925 	2.263721146330858e-12 	101324.9999999951
0.09384384384384339 	299.9999999999452 	2.577201542104052e-12 	101324.999999995
0.09634634634634588 	299.9999999999819 	2.753309867962186e-12 	101324.999999995
0.09884884884884838 	299.9999999999849 	2.942017941250087e-12 	101324.9999999949
0.1013513513513509 	300.0000000000134 	3.532832702376411e-12 	101324.9999999951
0.1038538538538534 	299.999999999972 	3.928276791978431e-12 	101324.9999999952
0.1063563563563559 	300.0000000000047 	4.542273952909689e-12 	101324.9999999947
0.1088588588588584 	300.0000000000132 	3.895498850720535e-12 	101324.9999999947
0.1113613613613609 	299.9999999999636 	4.68280445739806e-12 	101324.9999999943
0.1138638638638634 	299.9999999999705 	4.8590650269131e-12 	101324.9999999942
0.1163663663663659 	299.9999999999691 	4.52423128250608e-12 	101324.9999999942
0.1188688688688684 	299.9999999999808 	4.39130714419134e-12 	101324.9999999943
0.1213713713713709 	299.9999999999965 	4.315266408179166e-12 	101324.9999999944
0.1238738738738734 	299.9999999999575 	4.192177200666497e-12 	101324.9999999946
0.1263763763763759 	299.9999999999914 	4.270515585095704e-12 	101324.9999999947
0.1288788788788784 	299.9999999999919 	3.728564226036026e-12 	101324.9999999949
0.1313813813813809 	299.9999999999911 	4.255130271917229e-12 	101324.9999999949
0.1338838838838834 	299.9999999999856 	3.776971630240259e-12 	101324.999999995
0.1363863863863859 	300.0000000000131 	3.543815392972154e-12 	101324.9999999949
0.1388888888888884 	300.0000000000232 	2.651952226323178e-12 	101324.999999995
0.1413913913913909 	299.9999999999994 	1.915027185484979e-12 	101324.9999999951
0.1438938938938934 	299.9999999999958 	1.717880014640831e-12 	101324.9999999952
0.1463963963963959 	299.9999999999793 	1.935523478593671e-12 	101324.9999999952
0.1488988988988985 	299.9999999999528 	3.097970348352773e-12 	101324.9999999949
0.1514014014014009 	299.9999999999791 	3.553146090396105e-12 	101324.9999999948
0.1539039039039035 	299.9999999999759 	5.009546729267632e-12 	101324.9999999947
0.1564064064064059 	299.9999999999744 	3.336141655772084e-12 	101324.9999999944
0.1589089089089084 	299.9999999999874 	6.007545030291627e-12 	101324.9999999944
0.1614114114114109 	299.9999999999858 	3.575089086051415e-12 	101324.9999999948
0.1639139139139134 	299.9999999999515 	4.708810150335878e-12 	101324.9999999951
0.166416416416416 	299.9999999999999 	3.858509969643364e-12 	101324.9999999951
0.1689189189189185 	300.0000000000133 	3.401582666136237e-12 	101324.9999999949
0.1714214214214209 	299.9999999999929 	3.455481347620439e-12 	101324.9999999949
0.1739239239239235 	299.9999999999902 	2.34713209685643e-12 	101324.9999999951
0.1764264264264259 	299.9999999999794 	3.830302183478064e-12 	101324.9999999951
0.1789289289289284 	300.0000000000014 	1.663387843407825e-12 	101324.999999995
0.181431431431431 	299.9999999999797 	4.295250170529155e-12 	101324.999999995
0.1839339339339334 	299.9999999999835 	2.438661632504471e-12 	101324.9999999948
0.186436436436436 	299.9999999999629 	3.917446026200048e-12 	101324.9999999947
0.1889389389389385 	299.9999999999901 	3.76000744638526e-12 	101324.9999999945
0.191441441441441 	299.9999999999889 	3.480928778892818e-12 	101324.9999999945
0.1939439439439434 	299.9999999999586 	4.809424501314789e-12 	101324.9999999945
0.196446446446446 	299.9999999999744 	3.002696688298433e-12 	101324.9999999943
0.1989489489489485 	299.9999999999814 	4.50554590083155e-12 	101324.9999999943
0.2014514514514509 	299.9999999999884 	2.654097988094881e-12 	101324.9999999945
0.2039539539539535 	299.9999999999937 	4.324474479712642e-12 	101324.9999999945
0.2064564564564559 	299.9999999999764 	3.61558642204305e-12 	101324.9999999943
0.2089589589589585 	299.9999999999904 	3.744481392744029e-12 	101324.9999999945
0.211461461461461 	299.9999999999657 	3.546642456208689e-12 	101324.9999999947
0.2139639639639635 	299.9999999999935 	3.488979340238599e-12 	101324.9999999948
0.2164664664664659 	300.0000000000003 	4.307439588184588e-12 	101324.9999999949
0.2189689689689684 	299.9999999999965 	2.982211704683792e-12 	101324.9999999949
0.221471471471471 	299.9999999999948 	4.767726635903825e-12 	101324.9999999945
0.2239739739739735 	299.9999999999754 	2.49862094796587e-12 	101324.9999999943
0.226476476476476 	299.9999999999909 	3.750299136451367e-12 	101324.9999999945
0.2289789789789785 	299.9999999999973 	3.35383950856264e-12 	101324.9999999943
0.231481481481481 	299.999999999992 	3.708216316110059e-12 	101324.9999999945
0.2339839839839835 	299.9999999999909 	4.707020673851834e-12 	101324.9999999943
0.236486486486486 	300.000000000009 	4.001734304517374e-12 	101324.9999999942
0.2389889889889885 	299.9999999999981 	4.954827216682235e-12 	101324.9999999943
0.241491491491491 	299.9999999999589 	2.658045224264404e-12 	101324.9999999946
0.2439939939939935 	299.9999999999887 	4.598701391660857e-12 	101324.9999999948
0.246496496496496 	299.9999999999911 	2.572829794060858e-12 	101324.9999999946
0.2489989989989985 	300.0000000000143 	4.309176184668994e-12 	101324.9999999949
0.251501501501501 	300.00000000001 	3.533111774096722e-12 	101324.9999999948
0.2540040040040035 	299.9999999999925 	3.41190743900515e-12 	101324.9999999949
0.256506506506506 	300.00000000001 	3.646018934154244e-12 	101324.9999999947
0.2590090090090086 	299.9999999999513 	2.668836882433683e-12 	101324.9999999946
0.261511511511511 	300.0000000000015 	5.087180355501306e-12 	101324.9999999947
0.2640140140140135 	299.9999999999927 	3.073230936348412e-12 	101324.9999999949
0.2665165165165161 	299.9999999999633 	4.593579819829368e-12 	101324.999999995
0.2690190190190185 	300.0000000000052 	3.434202117019215e-12 	101324.9999999949
0.271521521521521 	299.9999999999996 	3.523505987160743e-12 	101324.9999999949
0.2740240240240235 	300.0000000000047 	3.398487575798327e-12 	101324.9999999948
0.276526526526526 	300.0000000000008 	2.991683631946915e-12 	101324.999999995
0.2790290290290286 	299.9999999999674 	4.296911384589311e-12 	101324.9999999948
0.281531531531531 	299.9999999999588 	2.829948341298338e-12 	101324.9999999949
0.2840340340340335 	299.9999999999907 	4.21119453687147e-12 	101324.9999999953
0.2865365365365361 	299.9999999999773 	2.548356050448954e-12 	101324.9999999952
0.2890390390390385 	299.999999999996 	3.519059537233933e-12 	101324.9999999951
0.291541541541541 	299.9999999999955 	3.286842065740211e-12 	101324.999999995
0.2940440440440436 	299.9999999999932 	3.345061647330847e-12 	101324.9999999948
0.296546546546546 	299.9999999999931 	3.702149026458836e-12 	101324.9999999948
0.2990490490490486 	299.9999999999618 	2.218544068869299e-12 	101324.9999999948
0.3015515515515511 	300.0000000000146 	4.589964360281641e-12 	101324.999999995
0.3040540540540535 	299.9999999999915 	1.475880783828931e-12 	101324.9999999953
0.3065565565565562 	299.9999999999968 	5.330961025655511e-12 	101324.9999999953
0.3090590590590585 	299.9999999999922 	1.00628663298704e-12 	101324.9999999953
0.3115615615615611 	299.9999999999642 	4.187552499436965e-12 	101324.9999999953
0.3140640640640635 	299.9999999999993 	2.111096090566564e-12 	101324.9999999954
0.316566566566566 	299.9999999999931 	3.215658172378452e-12 	101324.9999999954
0.3190690690690687 	299.9999999999744 	1.965180126948535e-12 	101324.9999999954
0.3215715715715711 	300.0000000000051 	3.056755989599453e-12 	101324.9999999952
0.3240740740740735 	299.9999999999959 	1.468805592916796e-12 	101324.9999999949
0.326576576576576 	299.9999999999465 	1.785620733437451e-12 	101324.9999999949
0.3290790790790786 	299.9999999999996 	1.141245212259924e-12 	101324.9999999951
0.3315815815815811 	300.0000000000209 	1.328082166548174e-12 	101324.9999999953
0.3340840840840836 	299.9999999999959 	1.312056967700262e-12 	101324.9999999953
0.3365865865865861 	300.0000000000304 	1.940513552502594e-12 	101324.9999999954
0.3390890890890886 	300.0000000000246 	9.204670893559564e-13 	101324.9999999955
0.3415915915915911 	300.0000000000003 	1.243643339381114e-12 	101324.9999999955
0.3440940940940935 	299.9999999999719 	8.737107107098547e-13 	101324.9999999957
0.3465965965965962 	300.0000000000189 	1.144181739927716e-12 	101324.9999999954
0.3490990990990985 	300.0000000000144 	3.088549066658776e-13 	101324.9999999954
0.3516016016016011 	299.9999999999922 	3.814840075622052e-13 	101324.9999999952
0.3541041041041035 	300.0000000000031 	1.999640487439266e-13 	101324.999999995
0.3566066066066061 	299.9999999999773 	5.18165957098914e-13 	101324.9999999951
0.3591091091091085 	299.9999999999586 	7.588770995892506e-13 	101324.9999999948
0.3616116116116112 	299.9999999999673 	1.277672700758318e-12 	101324.9999999949
0.3641141141141137 	299.9999999999618 	1.207074224685507e-12 	101324.9999999951
0.3666166166166161 	299.9999999999609 	1.781957934317759e-12 	101324.9999999952
0.3691191191191185 	300.0000000000169 	2.194910124271237e-12 	101324.9999999954
0.371621621621621 	300.0000000000078 	1.169553786064965e-12 	101324.9999999954
0.3741241241241237 	300.0000000000256 	1.671944495280683e-12 	101324.9999999954
0.3766266266266261 	300.0000000000116 	6.179226319648531e-13 	101324.9999999954
0.3791291291291286 	299.9999999999922 	1.089902363857457e-12 	101324.9999999953
0.3816316316316311 	299.9999999999587 	8.249949679694533e-13 	101324.9999999952
0.3841341341341336 	300.0000000000023 	7.806218406488883e-13 	101324.9999999953
0.3866366366366362 	299.9999999999969 	5.365502827230445e-13 	101324.9999999952
0.3891391391391387 	299.9999999999777 	2.884999205840751e-13 	101324.9999999954
0.391641641641641 	299.9999999999968 	6.846337643809254e-13 	101324.9999999957
0.3941441441441436 	300.0000000000038 	5.208676174606765e-13 	101324.9999999959
0.3966466466466462 	299.9999999999999 	7.374432462032885e-13 	101324.9999999959
0.3991491491491486 	299.9999999999752 	4.30061083271174e-13 	101324.9999999958
0.4016516516516512 	299.9999999999589 	1.405324780697134e-12 	101324.9999999956
0.4041541541541536 	299.9999999999761 	7.487997602020341e-13 	101324.9999999953
0.4066566566566561 	299.9999999999743 	2.295266731135364e-12 	101324.9999999948
0.4091591591591587 	299.9999999999974 	1.020224751696837e-12 	101324.9999999947
0.4116616616616612 	300.0000000000038 	3.322741700557586e-12 	101324.9999999946
0.4141641641641635 	300.000000000019 	2.29577065178773e-12 	101324.9999999948
0.4166666666666662 	299.9999999999984 	3.017417979634111e-12 	101324.999999995
0.4191691691691687 	299.9999999999695 	2.96720877312793e-12 	101324.999999995
0.421671671671671 	300.0000000000043 	2.108373023346988e-12 	101324.9999999951
0.4241741741741737 	299.9999999999849 	3.658802827389157e-12 	101324.9999999952
0.4266766766766761 	299.9999999999715 	1.012570714618874e-12 	101324.9999999952
0.4291791791791785 	300.0000000000117 	3.961497181271427e-12 	101324.9999999953
0.4316816816816812 	300.0000000000034 	1.14582265444757e-12 	101324.9999999953
0.4341841841841836 	299.9999999999883 	3.956706751142069e-12 	101324.9999999951
0.4366866866866862 	299.9999999999597 	1.672329232463763e-12 	101324.9999999953
0.4391891891891885 	299.9999999999982 	3.248573115416149e-12 	101324.9999999953
0.4416916916916913 	299.9999999999914 	1.614022917545618e-12 	101324.9999999951
0.4441941941941936 	299.999999999994 	2.368934427368828e-12 	101324.999999995
0.4466966966966961 	299.9999999999608 	2.007061668938046e-12 	101324.9999999951
0.4491991991991987 	299.9999999999938 	1.796381696616405e-12 	101324.9999999952
0.4517017017017012 	299.9999999999927 	2.527969737591548e-12 	101324.9999999953
0.4542042042042035 	299.9999999999937 	1.927788674565755e-12 	101324.9999999955
0.4567067067067062 	299.9999999999987 	2.580222075939988e-12 	101324.9999999957
0.4592092092092087 	299.9999999999649 	2.097135721813575e-12 	101324.999999996
0.4617117117117112 	300.000000000011 	2.329319905791334e-12 	101324.9999999962
0.4642142142142137 	299.9999999999828 	2.163033828353672e-12 	101324.999999996
0.4667167167167162 	299.9999999999972 	1.714702311811278e-12 	101324.9999999958
0.4692192192192187 	299.9999999999791 	1.372548585110224e-12 	101324.9999999955
0.4717217217217212 	300.000000000006 	9.243801437267473e-13 	101324.9999999956
0.4742242242242236 	299.9999999999785 	1.033004155534778e-12 	101324.9999999955
0.4767267267267262 	299.9999999999872 	9.077621926763609e-13 	101324.9999999956
0.4792292292292287 	300.0000000000079 	1.717410843454871e-12 	101324.9999999958
0.4817317317317312 	300.0000000000159 	2.514594846209328e-12 	101324.9999999957
0.4842342342342336 	299.9999999999922 	3.015663148778321e-12 	101324.9999999956
0.4867367367367362 	299.9999999999777 	3.22035258128733e-12 	101324.9999999956
0.4892392392392387 	300.0000000000135 	2.653550161854741e-12 	101324.9999999957
0.4917417417417412 	300.000000000002 	3.21898633972261e-12 	101324.9999999957
0.4942442442442437 	299.9999999999523 	2.036607730276402e-12 	101324.9999999955
0.4967467467467462 	299.9999999999617 	2.953338575432383e-12 	101324.9999999955
0.4992492492492487 	299.9999999999581 	1.006819842589612e-12 	101324.9999999955
0.5017517517517511 	299.9999999999762 	2.281952062845875e-12 	101324.9999999956
0.5042542542542537 	299.9999999999825 	1.586794323560203e-12 	101324.9999999957
0.5067567567567562 	299.9999999999736 	2.128255149891938e-12 	101324.9999999955
0.5092592592592589 	299.9999999999858 	2.261472771126578e-12 	101324.9999999954
0.5117617617617611 	299.9999999999798 	1.913578907713908e-12 	101324.9999999955
0.5142642642642637 	299.9999999999943 	2.878960389832459e-12 	101324.9999999956
0.5167667667667663 	299.9999999999872 	1.446602532262853e-12 	101324.9999999957
0.5192692692692688 	299.9999999999612 	3.674351601178119e-12 	101324.9999999958
0.5217717717717714 	299.999999999966 	1.661785106717715e-12 	101324.9999999957
0.5242742742742736 	299.999999999967 	3.674261285131903e-12 	101324.9999999957
0.5267767767767763 	299.9999999999781 	1.300468272081626e-12 	101324.9999999957
0.5292792792792789 	299.9999999999684 	3.147327009267704e-12 	101324.9999999956
0.5317817817817813 	299.9999999999548 	1.40559790260054e-12 	101324.9999999954
0.5342842842842837 	300.0000000000088 	1.902679714667691e-12 	101324.9999999956
0.5367867867867864 	300.0000000000019 	1.296791507394011e-12 	101324.9999999956
0.5392892892892888 	299.9999999999795 	1.333472617034434e-12 	101324.9999999958
0.5417917917917912 	299.9999999999998 	1.446451149188147e-12 	101324.999999996
0.5442942942942938 	299.9999999999894 	1.749073458098434e-12 	101324.999999996
0.5467967967967964 	299.9999999999779 	1.338825129109416e-12 	101324.9999999959
0.5492992992992988 	299.9999999999698 	1.64718583464627e-12 	101324.999999996
0.5518018018018012 	299.999999999967 	1.483406228383834e-12 	101324.9999999961
0.5543043043043039 	300.0000000000105 	1.599991536936992e-12 	101324.9999999963
0.5568068068068063 	299.9999999999953 	1.183146410108796e-12 	101324.9999999963
0.5593093093093087 	299.9999999999526 	1.657131222005505e-12 	101324.999999996
0.5618118118118114 	299.9999999999808 	7.461127694350587e-13 	101324.9999999959
0.5643143143143137 	299.9999999999711 	1.599958454156877e-12 	101324.9999999957
0.5668168168168163 	299.9999999999961 	7.995930377860123e-13 	101324.9999999956
0.5693193193193188 	300.0000000000178 	1.41101020418346e-12 	101324.9999999955
0.5718218218218213 	300.0000000000156 	1.849566358794918e-12 	101324.9999999956
0.5743243243243239 	300.0000000000065 	1.590322534810588e-12 	101324.9999999956
0.5768268268268262 	300.0000000000037 	2.576663816931794e-12 	101324.9999999955
0.5793293293293288 	299.9999999999766 	1.279984281200015e-12 	101324.9999999957
0.5818318318318314 	299.9999999999601 	3.495100472332196e-12 	101324.9999999958
0.5843343343343338 	299.9999999999869 	1.326109932422161e-12 	101324.9999999958
0.5868368368368363 	299.9999999999837 	3.394458915083901e-12 	101324.9999999956
0.5893393393393387 	299.9999999999689 	1.619752805186674e-12 	101324.9999999955
0.5918418418418413 	299.99999999997 	2.856163786304424e-12 	101324.9999999957
0.5943443443443439 	300.0000000000069 	1.902446626790764e-12 	101324.9999999956
0.5968468468468463 	300.0000000000092 	2.863812898640928e-12 	101324.9999999954
0.5993493493493487 	300.0000000000243 	2.764572821135699e-12 	101324.9999999954
0.6018518518518514 	299.9999999999885 	3.507504275182209e-12 	101324.9999999955
0.6043543543543537 	299.9999999999964 	3.05530542378477e-12 	101324.9999999954
0.6068568568568564 	299.9999999999905 	3.271538316859871e-12 	101324.9999999952
0.6093593593593587 	299.9999999999633 	3.066073688813113e-12 	101324.9999999953
0.6118618618618614 	299.9999999999615 	2.59368820274253e-12 	101324.9999999954
0.6143643643643638 	300.0000000000053 	1.913178660585555e-12 	101324.9999999954
0.6168668668668662 	299.999999999992 	2.191941597797915e-12 	101324.9999999955
0.6193693693693688 	299.9999999999779 	9.670505594197651e-13 	101324.9999999956
0.6218718718718714 	299.999999999983 	1.993859503661363e-12 	101324.9999999956
0.6243743743743737 	299.9999999999659 	7.597556349778283e-13 	101324.9999999955
0.6268768768768762 	299.9999999999596 	1.375188870990836e-12 	101324.9999999956
0.629379379379379 	299.9999999999698 	8.430550820174876e-13 	101324.9999999955
0.6318818818818812 	299.9999999999792 	1.89856479236662e-12 	101324.9999999954
0.6343843843843838 	300.000000000007 	2.067034619467846e-12 	101324.9999999953
0.6368868868868864 	299.9999999999894 	2.419419564168258e-12 	101324.9999999951
0.6393893893893888 	299.9999999999612 	2.82297993862371e-12 	101324.999999995
0.6418918918918912 	300.0000000000013 	1.372236498826197e-12 	101324.999999995
0.6443943943943939 	299.9999999999907 	3.517180476854822e-12 	101324.9999999952
0.6468968968968963 	299.9999999999893 	1.514500932165725e-12 	101324.9999999955
0.6493993993993988 	299.9999999999848 	3.680808377635756e-12 	101324.9999999956
0.6519019019019012 	299.9999999999822 	1.652890495135693e-12 	101324.9999999955
0.6544044044044038 	299.9999999999517 	3.158815598337325e-12 	101324.9999999954
0.6569069069069065 	299.9999999999822 	1.377723228988501e-12 	101324.9999999953
0.6594094094094087 	299.9999999999793 	2.694562499150692e-12 	101324.9999999953
0.6619119119119113 	299.9999999999726 	1.259321383893293e-12 	101324.999999995
0.664414414414414 	299.9999999999982 	1.962508193594457e-12 	101324.9999999949
0.6669169169169162 	300.0000000000078 	1.305929816742002e-12 	101324.9999999952
0.6694194194194188 	299.9999999999922 	1.545630405922867e-12 	101324.999999995
0.6719219219219214 	299.9999999999645 	5.80695515384466e-13 	101324.999999995
0.674424424424424 	299.9999999999876 	1.020816640416706e-12 	101324.9999999952
0.6769269269269262 	299.9999999999583 	9.234295426808642e-13 	101324.9999999954
0.679429429429429 	300.0000000000025 	1.189888350898801e-12 	101324.9999999955
0.6819319319319311 	299.9999999999872 	1.04912393241765e-12 	101324.9999999954
0.6844344344344341 	299.999999999996 	1.976639889928422e-12 	101324.9999999953
0.686936936936936 	299.9999999999944 	1.099954191646305e-12 	101324.9999999952
0.6894394394394392 	299.9999999999907 	1.781675821138806e-12 	101324.9999999951
0.6919419419419413 	299.999999999993 	1.574993425912419e-12 	101324.999999995
0.694444444444444 	299.9999999999761 	1.569412054611011e-12 	101324.9999999949
0.6969469469469463 	299.9999999999645 	1.25311562288909e-12 	101324.999999995
0.6994494494494489 	299.9999999999579 	7.654195603966605e-13 	101324.9999999951
0.7019519519519515 	299.999999999991 	1.269314216124913e-12 	101324.9999999952
0.7044544544544538 	299.9999999999718 	9.628275999046606e-13 	101324.9999999953
0.7069569569569564 	299.9999999999957 	2.009928183529315e-12 	101324.9999999952
0.7094594594594589 	299.9999999999819 	7.854416605311894e-13 	101324.9999999951
0.7119619619619615 	299.999999999957 	1.617812100210703e-12 	101324.9999999951
0.7144644644644638 	299.9999999999745 	3.882944823502688e-13 	101324.9999999953
0.7169669669669665 	299.9999999999604 	5.796903631849993e-13 	101324.9999999954
0.7194694694694688 	299.9999999999975 	7.992679046480108e-13 	101324.9999999954
0.7219719719719715 	299.9999999999969 	3.018231513299922e-13 	101324.9999999953
0.7244744744744737 	300.0000000000011 	5.051830070984583e-13 	101324.9999999954
0.7269769769769764 	299.9999999999973 	1.168530620791748e-12 	101324.9999999953
0.7294794794794791 	299.9999999999931 	1.177139900725118e-12 	101324.9999999952
0.7319819819819813 	299.9999999999907 	1.067892096915709e-12 	101324.999999995
0.7344844844844839 	299.9999999999589 	1.297898736314648e-12 	101324.9999999949
0.7369869869869864 	299.9999999999756 	3.763656166963906e-13 	101324.9999999948
0.739489489489489 	299.9999999999686 	5.993307477219001e-13 	101324.9999999947
0.7419919919919914 	299.999999999964 	1.070140711602346e-12 	101324.9999999946
0.7444944944944939 	299.9999999999876 	1.505424362508575e-12 	101324.9999999947
0.7469969969969963 	299.9999999999853 	1.829009342276883e-12 	101324.9999999949
0.7494994994994989 	299.9999999999698 	2.442575557160802e-12 	101324.9999999951
0.7520020020020015 	299.9999999999837 	1.695674562430064e-12 	101324.9999999955
0.7545045045045039 	299.9999999999837 	2.59509587598195e-12 	101324.9999999956
0.7570070070070062 	299.9999999999714 	8.582403913728091e-13 	101324.9999999955
0.7595095095095092 	299.9999999999625 	2.19274879328035e-12 	101324.9999999954
0.7620120120120112 	300.0000000000011 	1.300835845710716e-12 	101324.9999999954
0.7645145145145138 	299.9999999999941 	9.212337471568726e-13 	101324.9999999954
0.7670170170170165 	299.9999999999654 	1.471819226570657e-12 	101324.9999999955
0.7695195195195191 	299.9999999999598 	1.241233361851424e-12 	101324.9999999954
0.7720220220220213 	299.9999999999704 	2.096137938690881e-12 	101324.9999999953
0.7745245245245239 	299.9999999999714 	1.034316480439442e-12 	101324.9999999953
0.7770270270270263 	299.9999999999864 	1.531912753267131e-12 	101324.9999999953
0.779529529529529 	299.9999999999897 	2.666959411821386e-13 	101324.9999999952
0.7820320320320313 	299.9999999999848 	2.352545581923854e-13 	101324.9999999952
0.784534534534534 	299.9999999999965 	4.947399458983426e-13 	101324.9999999952
0.7870370370370364 	299.9999999999931 	1.078699792261857e-12 	101324.9999999952
0.7895395395395389 	299.9999999999874 	1.323107979284253e-12 	101324.9999999954
0.7920420420420413 	299.9999999999885 	1.869629943071529e-12 	101324.9999999956
0.794544544544544 	299.9999999999911 	2.293215391954312e-12 	101324.9999999956
0.7970470470470463 	299.9999999999998 	1.953941324108561e-12 	101324.9999999955
0.799549549549549 	299.9999999999924 	2.308531780498253e-12 	101324.9999999955
0.8020520520520515 	299.9999999999955 	1.333084117883859e-12 	101324.9999999954
0.8045545545545539 	299.9999999999727 	1.693101400889491e-12 	101324.9999999954
0.8070570570570563 	299.9999999999933 	1.155022287922564e-12 	101324.9999999953
0.8095595595595589 	299.9999999999816 	1.689405990517143e-12 	101324.9999999952
0.8120620620620614 	299.9999999999674 	1.735722252667146e-12 	101324.9999999949
0.8145645645645638 	299.999999999996 	1.554025492710657e-12 	101324.9999999949
0.8170670670670666 	299.9999999999937 	2.204065162868378e-12 	101324.999999995
0.8195695695695689 	299.999999999987 	1.43082564929934e-12 	101324.9999999951
0.8220720720720714 	299.9999999999737 	2.417257392627745e-12 	101324.9999999951
0.8245745745745739 	299.9999999999994 	8.897582388046944e-13 	101324.999999995
0.8270770770770765 	299.9999999999901 	1.578081453706261e-12 	101324.9999999948
0.8295795795795788 	299.9999999999746 	6.253801137996673e-13 	101324.9999999948
0.8320820820820815 	300.0000000000113 	8.982621476520866e-13 	101324.9999999948
0.834584584584584 	300.0000000000031 	7.057834729689428e-13 	101324.9999999948
0.8370870870870865 	299.9999999999816 	4.905671582085688e-13 	101324.999999995
0.8395895895895891 	299.9999999999577 	4.805357716326445e-13 	101324.9999999951
0.8420920920920915 	299.9999999999666 	2.934757069571702e-13 	101324.9999999953
0.844594594594594 	299.9999999999637 	6.726319735057338e-13 	101324.9999999953
0.8470970970970964 	299.9999999999685 	1.103019468778231e-12 	101324.9999999952
0.8495995995995991 	299.9999999999881 	1.294553183245623e-12 	101324.9999999953
0.8521021021021015 	299.9999999999864 	1.540006105097223e-12 	101324.9999999953
0.8546046046046039 	299.9999999999902 	1.649490543299556e-12 	101324.9999999951
0.8571071071071066 	299.9999999999986 	2.641500192131316e-12 	101324.999999995
0.8596096096096089 	299.9999999999757 	1.547236716892034e-12 	101324.999999995
0.8621121121121116 	299.9999999999584 	2.877218182960118e-12 	101324.999999995
0.8646146146146139 	299.9999999999894 	1.803797068992044e-12 	101324.9999999949
0.8671171171171166 	299.9999999999854 	2.765846423081286e-12 	101324.9999999948
0.8696196196196189 	299.9999999999759 	2.213253565076307e-12 	101324.9999999947
0.8721221221221216 	299.9999999999803 	2.347117335327975e-12 	101324.9999999947
0.874624624624624 	300.000000000001 	1.890976124994015e-12 	101324.9999999949
0.8771271271271264 	300.0000000000045 	1.373626131011484e-12 	101324.999999995
0.879629629629629 	300.0000000000007 	2.139020061891859e-12 	101324.9999999951
0.8821321321321317 	299.9999999999887 	1.768367083543316e-12 	101324.9999999951
0.8846346346346339 	299.9999999999575 	2.210032812749214e-12 	101324.999999995
0.8871371371371364 	299.9999999999752 	1.147399111627667e-12 	101324.999999995
0.8896396396396391 	299.9999999999795 	2.108668192962067e-12 	101324.9999999953
0.8921421421421414 	299.9999999999808 	1.493538188069207e-12 	101324.9999999955
0.8946446446446441 	299.9999999999896 	1.995146142069924e-12 	101324.9999999957
0.8971471471471464 	299.9999999999993 	1.731888268288042e-12 	101324.9999999958
0.8996496496496489 	299.9999999999844 	1.314734621392444e-12 	101324.9999999959
0.9021521521521517 	299.9999999999799 	1.981720780149024e-12 	101324.999999996
0.9046546546546541 	299.9999999999945 	1.498210766155698e-12 	101324.9999999959
0.9071571571571564 	299.9999999999721 	2.025219416060743e-12 	101324.9999999957
0.9096596596596589 	299.9999999999727 	2.326897667106238e-12 	101324.9999999955
0.9121621621621616 	300.0000000000016 	2.642695961267253e-12 	101324.9999999955
0.9146646646646639 	299.9999999999905 	2.627215158145999e-12 	101324.9999999956
0.9171671671671666 	299.9999999999734 	2.586696207631515e-12 	101324.9999999956
0.9196696696696689 	299.9999999999999 	2.724929985392495e-12 	101324.9999999958
0.9221721721721714 	300.0000000000026 	1.609009954778911e-12 	101324.9999999959
0.9246746746746741 	299.9999999999723 	2.541865922440569e-12 	101324.9999999958
0.9271771771771765 	299.9999999999712 	1.382346935587393e-12 	101324.9999999959
0.9296796796796791 	299.9999999999989 	2.432863910276347e-12 	101324.9999999961
0.9321821821821816 	299.9999999999893 	1.998592017791067e-12 	101324.9999999962
0.9346846846846838 	299.9999999999739 	3.309843577992456e-12 	101324.9999999963
0.9371871871871866 	300.0000000000052 	3.460040339438635e-12 	101324.9999999963
0.9396896896896891 	300.000000000007 	3.476751431528086e-12 	101324.9999999963
0.9421921921921914 	300.0000000000038 	3.690662825837125e-12 	101324.9999999963
0.9446946946946939 	299.999999999979 	2.992058881168657e-12 	101324.9999999962
0.9471971971971965 	299.9999999999579 	4.082426016259267e-12 	101324.9999999962
0.9496996996996991 	299.9999999999779 	2.872389789952314e-12 	101324.9999999964
0.9522022022022016 	299.9999999999836 	3.854407180803372e-12 	101324.9999999964
0.9547047047047038 	299.9999999999824 	3.228528266265292e-12 	101324.9999999965
0.9572072072072064 	299.9999999999795 	3.583750111453152e-12 	101324.9999999967
0.9597097097097093 	299.9999999999839 	3.43471268890396e-12 	101324.9999999967
0.9622122122122114 	299.9999999999794 	3.504024355450848e-12 	101324.9999999967
0.964714714714714 	299.999999999978 	4.223647926090409e-12 	101324.9999999965
0.9672172172172167 	299.9999999999803 	3.623608525552594e-12 	101324.9999999964
0.969719719719719 	299.9999999999956 	4.202861523399833e-12 	101324.9999999966
0.9722222222222214 	299.9999999999914 	3.822475159018447e-12 	101324.9999999969
0.9747247247247239 	299.9999999999854 	4.088572236782943e-12 	101324.999999997
0.9772272272272267 	299.9999999999974 	4.089708520152304e-12 	101324.999999997
0.9797297297297292 	299.9999999999928 	4.231456489378611e-12 	101324.9999999968
0.9822322322322313 	299.9999999999974 	5.097478158230858e-12 	101324.9999999969
0.9847347347347344 	299.9999999999966 	4.745692959937656e-12 	101324.9999999967
0.9872372372372363 	299.9999999999766 	6.376675280459293e-12 	101324.9999999966
0.9897397397397389 	299.9999999999891 	4.84506157545929e-12 	101324.9999999966
0.9922422422422417 	299.9999999999787 	5.757570224367823e-12 	101324.9999999966
0.9947447447447441 	299.9999999999764 	4.944657925588756e-12 	101324.9999999965
0.9972472472472468 	299.9999999999803 	5.551604368284335e-12 	101324.9999999966
0.999749749749749 	299.9999999999817 	5.27099769331369e-12 	101324.9999999966
1.002252252252252 	299.9999999999924 	5.388977969263917e-12 	101324.9999999966
1.004754754754754 	299.999999999991 	5.405052242881902e-12 	101324.9999999965
1.007257257257256 	299.9999999999831 	5.108766450517842e-12 	101324.9999999964
1.009759759759759 	299.9999999999782 	6.499303909002443e-12 	101324.9999999963
1.012262262262261 	299.9999999999803 	5.373085621977513e-12 	101324.9999999964
1.014764764764764 	299.999999999966 	6.381336139622035e-12 	101324.9999999966
1.017267267267267 	299.9999999999576 	5.651682282740193e-12 	101324.9999999965
1.019769769769769 	299.9999999999789 	5.976123362446442e-12 	101324.9999999966
1.022272272272272 	299.9999999999863 	5.601364577906078e-12 	101324.9999999967
1.024774774774774 	299.9999999999891 	5.501898628686854e-12 	101324.9999999969
1.027277277277277 	299.9999999999873 	6.03928253100943e-12 	101324.9999999971
1.029779779779779 	300.0000000000003 	5.668954870555468e-12 	101324.9999999972
1.032282282282282 	299.9999999999991 	6.115825667698587e-12 	101324.9999999973
1.034784784784784 	299.9999999999953 	5.305332837165031e-12 	101324.9999999972
1.037287287287286 	299.9999999999858 	5.463499862448753e-12 	101324.9999999971
1.039789789789789 	299.9999999999893 	5.92265883116667e-12 	101324.9999999971
1.042292292292291 	300.000000000005 	6.534238182913673e-12 	101324.999999997
1.044794794794794 	300.0000000000109 	6.641335708933114e-12 	101324.9999999969
1.047297297297296 	300.0000000000192 	5.800271441937951e-12 	101324.9999999972
1.049799799799799 	299.9999999999961 	6.349770662266149e-12 	101324.9999999974
1.052302302302302 	299.9999999999794 	4.627245956941312e-12 	101324.9999999974
1.054804804804804 	299.9999999999711 	5.509938522559738e-12 	101324.9999999974
1.057307307307306 	299.9999999999616 	4.887091989694933e-12 	101324.9999999974
1.059809809809809 	299.9999999999797 	5.532497441292069e-12 	101324.9999999974
1.062312312312312 	299.9999999999777 	5.546579454542584e-12 	101324.9999999974
1.064814814814814 	299.9999999999742 	6.248615934145761e-12 	101324.9999999973
1.067317317317317 	299.9999999999625 	6.338289329893989e-12 	101324.9999999973
1.069819819819819 	299.9999999999648 	6.757885443013638e-12 	101324.9999999974
1.072322322322321 	299.9999999999988 	7.959889754599591e-12 	101324.9999999975
1.074824824824824 	300.0000000000134 	6.095594351309287e-12 	101324.9999999975
1.077327327327327 	300.0000000000207 	6.566628480648745e-12 	101324.9999999975
1.079829829829829 	300.0000000000194 	5.5702807751098e-12 	101324.9999999974
1.082332332332332 	300.0000000000016 	6.221438429275695e-12 	101324.9999999974
1.084834834834834 	299.9999999999905 	5.892362718670891e-12 	101324.9999999974
1.087337337337337 	299.999999999974 	5.826249112507639e-12 	101324.9999999972
1.089839839839839 	299.9999999999686 	6.758683440157286e-12 	101324.9999999971
1.092342342342342 	299.9999999999858 	6.081411139791212e-12 	101324.9999999972
1.094844844844844 	299.9999999999851 	6.813847980192218e-12 	101324.9999999973
1.097347347347347 	299.9999999999717 	5.880669029300952e-12 	101324.9999999974
1.099849849849849 	299.9999999999656 	7.410499059010641e-12 	101324.9999999976
1.102352352352352 	299.9999999999803 	6.132561032062896e-12 	101324.9999999976
1.104854854854854 	299.9999999999911 	7.714376077592599e-12 	101324.9999999975
1.107357357357357 	299.9999999999831 	6.929163998987897e-12 	101324.9999999976
1.109859859859859 	299.9999999999774 	8.045122959607523e-12 	101324.9999999976
1.112362362362362 	300.0000000000099 	7.449967257832104e-12 	101324.9999999976
1.114864864864865 	300.0000000000103 	7.161135746473426e-12 	101324.9999999976
1.117367367367367 	299.9999999999848 	7.248313808634219e-12 	101324.9999999978
1.119869869869869 	299.9999999999656 	5.796210029925283e-12 	101324.9999999979
1.122372372372372 	299.9999999999815 	6.693261828123028e-12 	101324.9999999981
1.124874874874874 	299.9999999999801 	6.288570889474325e-12 	101324.9999999981
1.127377377377377 	299.9999999999845 	7.484667260230758e-12 	101324.9999999981
1.129879879879879 	300.0000000000065 	7.424266400211021e-12 	101324.9999999982
1.132382382382382 	300.0000000000114 	7.732954377886743e-12 	101324.9999999981
1.134884884884884 	300.0000000000005 	7.254929049140549e-12 	101324.999999998
1.137387387387387 	300.0000000000063 	6.974321634689918e-12 	101324.999999998
1.139889889889889 	299.9999999999839 	7.351562306013816e-12 	101324.9999999981
1.142392392392392 	299.9999999999774 	6.291318481240916e-12 	101324.9999999981
1.144894894894894 	300.0000000000048 	6.828844733178742e-12 	101324.9999999981
1.147397397397397 	299.9999999999994 	5.820098562207983e-12 	101324.9999999983
1.149899899899899 	299.9999999999734 	6.175173195232639e-12 	101324.9999999983
1.152402402402402 	299.9999999999691 	5.744376658025124e-12 	101324.9999999983
1.154904904904904 	299.9999999999877 	6.683473136373665e-12 	101324.9999999983
1.157407407407407 	299.9999999999877 	6.731085897517745e-12 	101324.9999999982
1.159909909909909 	299.9999999999724 	7.020029875557441e-12 	101324.9999999982
1.162412412412412 	299.9999999999653 	7.85905318213682e-12 	101324.9999999982
1.164914914914914 	299.999999999979 	6.497807819518937e-12 	101324.9999999983
1.167417417417417 	299.9999999999854 	6.952171390533626e-12 	101324.9999999983
1.169919919919919 	300.0000000000085 	5.919632461776926e-12 	101324.9999999983
1.172422422422422 	300.0000000000206 	6.296800900361292e-12 	101324.9999999982
1.174924924924925 	299.9999999999945 	5.45107344590109e-12 	101324.9999999982
1.177427427427427 	299.999999999982 	6.026337147830277e-12 	101324.9999999981
1.179929929929929 	300.0000000000045 	6.655771526824822e-12 	101324.9999999978
1.182432432432432 	300.0000000000165 	5.405727885145867e-12 	101324.9999999978
1.184934934934934 	300.0000000000006 	6.019469123027214e-12 	101324.9999999979
1.187437437437437 	299.9999999999876 	5.505498060473549e-12 	101324.999999998
1.189939939939939 	299.9999999999872 	6.159833949996941e-12 	101324.9999999981
1.192442442442442 	299.9999999999699 	5.6325886657215e-12 	101324.9999999983
1.194944944944944 	299.9999999999687 	6.693953426577535e-12 	101324.9999999983
1.197447447447447 	299.9999999999986 	6.322658373207092e-12 	101324.9999999982
1.199949949949949 	300.0000000000072 	6.560022717577121e-12 	101324.9999999982
1.202452452452452 	299.9999999999811 	7.163525155858837e-12 	101324.9999999981
1.204954954954955 	299.9999999999764 	6.18437453206442e-12 	101324.9999999981
1.207457457457457 	299.9999999999912 	6.95545998771352e-12 	101324.9999999981
1.20995995995996 	299.999999999992 	6.548192920314669e-12 	101324.999999998
1.212462462462462 	299.9999999999932 	7.216857444581927e-12 	101324.9999999981
1.214964964964964 	299.9999999999938 	6.20066112708652e-12 	101324.9999999981
1.217467467467467 	299.9999999999914 	6.323930922272466e-12 	101324.9999999982
1.219969969969969 	299.999999999981 	5.371110483780647e-12 	101324.9999999983
1.222472472472472 	300.0000000000052 	5.602159661294342e-12 	101324.9999999984
1.224974974974975 	300.000000000019 	6.143527892864449e-12 	101324.9999999985
1.227477477477477 	299.9999999999956 	5.189659840631812e-12 	101324.9999999987
1.229979979979979 	299.9999999999899 	5.908325480675865e-12 	101324.9999999988
1.232482482482482 	299.9999999999808 	4.776049471226672e-12 	101324.9999999987
1.234984984984984 	299.9999999999803 	5.502069552276704e-12 	101324.9999999987
1.237487487487487 	299.99999999999 	4.698312669302739e-12 	101324.9999999985
1.239989989989989 	299.9999999999919 	5.53556273468994e-12 	101324.9999999984
1.242492492492492 	300.0000000000059 	6.190950014706131e-12 	101324.9999999983
1.244994994994994 	299.9999999999933 	5.274538718444541e-12 	101324.9999999981
1.247497497497497 	299.9999999999972 	6.28471468427889e-12 	101324.999999998
1.249999999999999 	300.0000000000721 	6.031686360403382e-12 	101324.9999999979
