-1.25 	300 	0.1182877302584755 	101372.5528258148
-1.247497497497497 	300.0382472251802 	0.111058781742595 	101370.4683203514
-1.244994994994995 	300.0354626295638 	0.1016820444334186 	101366.9259993313
-1.242492492492492 	300.0319132944127 	0.09296191698837472 	101362.7328856187
-1.23998998998999 	300.0277586537591 	0.08016176425034049 	101357.8201899932
-1.237487487487487 	300.0231038384061 	0.06679429160084413 	101352.3161436478
-1.234984984984985 	300.0181204032243 	0.0522728289143829 	101346.4237936107
-1.232482482482482 	300.0127741971666 	0.03684861762088898 	101340.1027665225
-1.22997997997998 	300.0071777970538 	0.02066221893883746 	101333.4862133263
-1.227477477477477 	300.0014796086043 	0.00818323081065838 	101326.7496211692
-1.224974974974975 	299.9957730461692 	0.01232833682167292 	101320.0034522868
-1.222472472472472 	299.9900991969833 	0.02873436290077059 	101313.2962605369
-1.21996996996997 	299.9845601581584 	0.04471618630833636 	101306.748724745
-1.217467467467467 	299.9793223911522 	0.05986406131380524 	101300.5575874221
-1.214964964964965 	299.974460597527 	0.0739288824414167 	101294.8110808711
-1.212462462462462 	299.9700297211566 	0.08671131941902645 	101289.5741004
-1.20995995995996 	299.9661611951661 	0.09786982183897258 	101285.0019229459
-1.207457457457457 	299.962973184562 	0.1070964825143841 	101281.2341290062
-1.204954954954955 	299.9604873959933 	0.114296075119338 	101278.2963172322
-1.202452452452452 	299.9587021459749 	0.1194445663453425 	101276.186405336
-1.19994994994995 	299.9576590481582 	0.1224463724454326 	101274.953595841
-1.197447447447447 	299.9573942865113 	0.1232042816779844 	101274.6406771172
-1.194944944944945 	299.957917785354 	0.1216771301426389 	101275.2592866585
-1.192442442442442 	299.959237782203 	0.1178491391429537 	101276.8191651055
-1.18993993993994 	299.9613427236178 	0.1117582275354721 	101279.3067116757
-1.187437437437437 	299.9641873799504 	0.1035358319823446 	101282.668525778
-1.184934934934935 	299.9677008944986 	0.09338965805850963 	101286.8209379904
-1.182432432432432 	299.9717852432438 	0.08159136729255068 	101291.6481549622
-1.17992992992993 	299.9763383119183 	0.06842485964876308 	101297.0295492503
-1.177427427427427 	299.9812820717891 	0.05411873059553562 	101302.8729577922
-1.174924924924925 	299.9865526415618 	0.03887427456619792 	101309.1029210902
-1.172422422422422 	299.9920687341359 	0.02293064227209849 	101315.6234024869
-1.16991991991992 	299.9977276496472 	0.007787287390673618 	101322.3130386297
-1.167417417417417 	300.0034437026521 	0.009974190599303063 	101329.07054343
-1.164914914914915 	300.0091504742142 	0.02646732117113249 	101335.8174079375
-1.162412412412412 	300.0147350718977 	0.04257275818283298 	101342.4201626377
-1.15990990990991 	300.0200075211122 	0.05778194989089865 	101348.6541549664
-1.157407407407407 	300.0248091196115 	0.07169267457162318 	101354.3316769022
-1.154904904904904 	300.0291469129345 	0.08429719925563314 	101359.4609783176
-1.152402402402403 	300.0331138621715 	0.0957635020101837 	101364.15193706
-1.1498998998999 	300.0366390678824 	0.1058503261565801 	101368.3206868134
-1.147397397397397 	300.0394111435656 	0.1137525659930152 	101371.5989451575
-1.144894894894895 	300.0411320894559 	0.1187362975304637 	101373.6342173137
-1.142392392392392 	300.0418348619305 	0.1209028889370889 	101374.4653925116
-1.13988988988989 	300.0418792379464 	0.1211561844661855 	101374.5179074449
-1.137387387387387 	300.0415946577784 	0.120316910522017 	101374.1814065266
-1.134884884884885 	300.0409461867883 	0.1182805043472124 	101373.4145852494
-1.132382382382382 	300.0395399277699 	0.1140124213865237 	101371.7516532038
-1.12987987987988 	300.0369185123326 	0.106314720915201 	101368.6517800729
-1.127377377377377 	300.0328978933568 	0.09472909095266002 	101363.8973683978
-1.124874874874875 	300.0277377192414 	0.07999075111653309 	101357.7955802268
-1.122372372372372 	300.0220607357925 	0.06380271480484859 	101351.0829142525
-1.11986986986987 	300.0165785823448 	0.04811823890390621 	101344.6008716348
-1.117367367367367 	300.011818666204 	0.03442835394007736 	101338.9729979647
-1.114864864864865 	300.0080249557204 	0.02346106987720769 	101334.487648991
-1.112362362362362 	300.0052085658405 	0.01528073114324983 	101331.1578721986
-1.10985985985986 	300.0032414723365 	0.009542237484849113 	101328.8322413829
-1.107357357357357 	300.0019394935493 	0.005728480939658603 	101327.2929682226
-1.104854854854855 	300.0011183618116 	0.003313899411932224 	101326.3221842765
-1.102352352352353 	300.0006227692937 	0.001851204766100759 	101325.736270414
-1.09984984984985 	300.0003355233395 	0.001000429726954348 	101325.3966739826
-1.097347347347347 	300.000175179046 	0.0005239028534192032 	101325.2071066963
-1.094844844844845 	300.0000887657534 	0.0002662494767656843 	101325.1049442249
-1.092342342342342 	300.000043710959 	0.0001314861398677573 	101325.0516778722
-1.08983983983984 	300.000020943105 	6.317573539573877e-05 	101325.0247603476
-1.087337337337337 	300.000009774084 	2.956510939710476e-05 	101325.0115556188
-1.084834834834835 	300.0000044476815 	1.34898501751574e-05 	101325.0052583844
-1.082332332332332 	300.0000019752331 	6.006725248861603e-06 	101325.0023352718
-1.07982982982983 	300.0000008568518 	2.612431802715566e-06 	101325.001013027
-1.077327327327327 	300.0000003633616 	1.110646034215666e-06 	101325.0004295842
-1.074824824824825 	300.0000001507382 	4.619038481130058e-07 	101325.0001782133
-1.072322322322323 	300.0000000612184 	1.880507496709593e-07 	101325.0000723762
-1.06981981981982 	300.0000000243649 	7.499390573936747e-08 	101325.0000287934
-1.067317317317317 	300.0000000094983 	2.931462977319163e-08 	101325.0000112275
-1.064814814814815 	300.0000000036252 	1.123854199422423e-08 	101325.0000042933
-1.062312312312312 	300.0000000013579 	4.228585146258209e-09 	101325.0000016104
-1.05980980980981 	300.000000000495 	1.562682563977024e-09 	101325.0000005924
-1.057307307307307 	300.0000000001635 	5.676402467297379e-10 	101325.0000002133
-1.054804804804805 	300.0000000000496 	2.029072047686243e-10 	101325.0000000747
-1.052302302302302 	300.0000000000163 	7.167174436937374e-11 	101325.000000025
-1.0497997997998 	300.0000000000063 	2.54288771090678e-11 	101325.0000000075
-1.047297297297297 	300.0000000000111 	9.402806325118557e-12 	101325.0000000014
-1.044794794794795 	300.0000000000056 	4.048432650983354e-12 	101324.9999999995
-1.042292292292292 	300.0000000000021 	2.124845675824207e-12 	101324.9999999989
-1.03978978978979 	299.9999999999937 	1.267451736355708e-12 	101324.9999999988
-1.037287287287287 	299.9999999999914 	6.950321306322636e-13 	101324.9999999987
-1.034784784784785 	299.9999999999977 	6.279532268651828e-13 	101324.9999999986
-1.032282282282283 	299.9999999999986 	6.50776941456195e-13 	101324.9999999985
-1.02977977977978 	299.9999999999982 	7.628493370072174e-13 	101324.9999999984
-1.027277277277277 	299.999999999985 	6.228910765002686e-13 	101324.9999999984
-1.024774774774775 	299.9999999999837 	1.882708622311337e-13 	101324.9999999985
-1.022272272272272 	299.9999999999894 	4.871678231329801e-14 	101324.9999999985
-1.01976976976977 	299.9999999999891 	2.990961976865669e-13 	101324.9999999986
-1.017267267267267 	299.9999999999823 	2.315023110188317e-13 	101324.9999999985
-1.014764764764765 	299.9999999999849 	7.674288960669726e-13 	101324.9999999985
-1.012262262262262 	299.9999999999908 	5.431604538282577e-13 	101324.9999999984
-1.00975975975976 	299.9999999999916 	1.352690678481153e-12 	101324.9999999983
-1.007257257257257 	299.9999999999898 	1.370376056459579e-12 	101324.9999999983
-1.004754754754755 	299.9999999999993 	1.021174738728412e-12 	101324.9999999984
-1.002252252252252 	299.9999999999997 	5.002268709626911e-13 	101324.9999999986
-0.9997497497497498 	299.9999999999969 	5.035350724428496e-13 	101324.9999999988
-0.9972472472472473 	299.9999999999977 	1.003005960502825e-12 	101324.9999999989
-0.9947447447447449 	299.999999999988 	7.914926253673741e-13 	101324.9999999988
-0.9922422422422421 	299.9999999999907 	1.085591821527775e-12 	101324.9999999987
-0.9897397397397399 	299.9999999999928 	7.636913532062201e-13 	101324.9999999985
-0.9872372372372376 	299.9999999999946 	1.273297728184268e-12 	101324.9999999984
-0.9847347347347346 	299.9999999999883 	9.09430081919289e-13 	101324.9999999985
-0.9822322322322323 	299.9999999999876 	1.155685427758911e-12 	101324.9999999985
-0.9797297297297296 	299.9999999999956 	1.348115630491142e-12 	101324.9999999986
-0.9772272272272275 	300.0000000000001 	1.221870941872771e-12 	101324.9999999986
-0.9747247247247248 	300.0000000000013 	1.274225907484161e-12 	101324.9999999987
-0.9722222222222224 	299.9999999999872 	1.0933162653715e-12 	101324.9999999986
-0.9697197197197196 	299.9999999999843 	1.211517827041052e-12 	101324.9999999986
-0.9672172172172175 	299.9999999999866 	8.373826205308044e-13 	101324.9999999986
-0.9647147147147147 	299.9999999999911 	5.076949258114957e-13 	101324.9999999987
-0.9622122122122124 	299.9999999999935 	7.054257454488873e-13 	101324.9999999986
-0.9597097097097099 	299.9999999999947 	7.169448578150926e-13 	101324.9999999985
-0.9572072072072073 	299.9999999999928 	5.623087917968906e-13 	101324.9999999984
-0.9547047047047047 	300.000000000001 	2.065028370101528e-13 	101324.9999999984
-0.9522022022022023 	299.999999999996 	9.101249488251868e-13 	101324.9999999983
-0.9496996996996998 	299.9999999999944 	7.66958703781187e-13 	101324.9999999982
-0.9471971971971973 	299.999999999997 	1.511070563983469e-12 	101324.9999999981
-0.9446946946946947 	299.9999999999844 	1.287370622902897e-12 	101324.9999999982
-0.9421921921921923 	299.9999999999919 	9.338391630557334e-13 	101324.9999999981
-0.93968968968969 	299.9999999999994 	9.225792732666154e-13 	101324.9999999982
-0.9371871871871872 	299.9999999999969 	5.669343078872682e-13 	101324.9999999983
-0.9346846846846848 	299.9999999999879 	6.240623349119467e-13 	101324.9999999984
-0.9321821821821823 	299.9999999999934 	1.307976946453725e-12 	101324.9999999983
-0.9296796796796799 	300.0000000000009 	1.025428523628473e-12 	101324.9999999981
-0.9271771771771771 	299.9999999999973 	1.356476523419063e-12 	101324.999999998
-0.9246746746746748 	299.9999999999935 	1.30310877036335e-12 	101324.9999999981
-0.9221721721721724 	299.9999999999979 	1.233209953251374e-12 	101324.9999999981
-0.9196696696696698 	299.999999999997 	1.414017926991849e-12 	101324.9999999981
-0.9171671671671672 	299.9999999999877 	8.37544201538086e-13 	101324.9999999981
-0.9146646646646649 	299.9999999999949 	1.941171504235054e-13 	101324.999999998
-0.9121621621621623 	300.0000000000018 	1.727492091585698e-13 	101324.9999999982
-0.9096596596596597 	299.9999999999945 	6.72071358827875e-13 	101324.9999999984
-0.9071571571571573 	299.9999999999978 	8.310738168195664e-13 	101324.9999999983
-0.9046546546546547 	300.0000000000022 	7.799833289733862e-13 	101324.9999999982
-0.9021521521521524 	299.9999999999945 	8.714062555182477e-13 	101324.9999999981
-0.8996496496496498 	299.999999999997 	6.914469138582281e-13 	101324.9999999981
-0.8971471471471473 	300.0000000000009 	7.828363673548635e-13 	101324.9999999981
-0.894644644644645 	299.9999999999993 	7.186120151163778e-13 	101324.9999999981
-0.892142142142142 	300.0000000000005 	4.303556482659524e-13 	101324.999999998
-0.8896396396396397 	300.0000000000013 	1.32345483051726e-12 	101324.9999999981
-0.8871371371371374 	299.9999999999911 	8.55274820144531e-13 	101324.9999999982
-0.8846346346346349 	299.9999999999876 	2.036803906314905e-12 	101324.9999999981
-0.8821321321321324 	299.9999999999868 	1.266372883544533e-12 	101324.9999999981
-0.8796296296296297 	299.9999999999893 	2.18331247818079e-12 	101324.9999999979
-0.8771271271271271 	299.9999999999912 	1.561667526054946e-12 	101324.9999999978
-0.8746246246246248 	299.9999999999983 	1.775607076172562e-12 	101324.9999999977
-0.8721221221221224 	300.0000000000013 	9.428875203188694e-13 	101324.9999999975
-0.8696196196196196 	299.9999999999926 	1.646579381904225e-12 	101324.9999999975
-0.8671171171171175 	299.9999999999968 	1.33868188635592e-12 	101324.9999999975
-0.8646146146146148 	299.9999999999871 	1.32331744747559e-12 	101324.9999999975
-0.8621121121121121 	299.9999999999945 	8.294825711580265e-13 	101324.9999999976
-0.8596096096096097 	300.000000000004 	8.902604053049696e-13 	101324.9999999978
-0.857107107107107 	299.9999999999914 	1.51661866876956e-12 	101324.9999999978
-0.8546046046046049 	299.9999999999967 	1.073792769154054e-12 	101324.9999999977
-0.8521021021021022 	299.9999999999996 	9.478906147637486e-13 	101324.9999999978
-0.8495995995995997 	299.9999999999973 	1.395353853351569e-12 	101324.999999998
-0.8470970970970974 	299.9999999999855 	1.145575344582985e-12 	101324.9999999981
-0.8445945945945946 	299.9999999999891 	1.239077753497364e-12 	101324.999999998
-0.8420920920920922 	300.0000000000006 	7.627637112964368e-13 	101324.9999999979
-0.8395895895895897 	299.9999999999969 	1.761090018106478e-12 	101324.9999999978
-0.8370870870870872 	299.9999999999987 	1.237174486241334e-12 	101324.9999999979
-0.8345845845845846 	300.0000000000015 	1.390022658308311e-12 	101324.999999998
-0.8320820820820823 	299.9999999999893 	8.54759564021328e-13 	101324.9999999982
-0.8295795795795798 	299.9999999999807 	9.910451114057405e-13 	101324.9999999982
-0.8270770770770772 	299.9999999999889 	1.558594803483524e-12 	101324.9999999982
-0.8245745745745746 	299.9999999999836 	1.047203426716855e-12 	101324.9999999981
-0.8220720720720721 	299.9999999999878 	8.589168493028253e-13 	101324.9999999982
-0.8195695695695699 	299.9999999999975 	7.934508316345094e-13 	101324.9999999983
-0.817067067067067 	299.9999999999895 	1.417381974636183e-12 	101324.9999999983
-0.8145645645645651 	299.9999999999827 	1.386400756361137e-12 	101324.9999999984
-0.8120620620620621 	299.9999999999962 	8.146586353759001e-13 	101324.9999999983
-0.8095595595595597 	300.0000000000011 	5.442352361735489e-13 	101324.9999999983
-0.8070570570570572 	299.9999999999863 	3.304478223182435e-13 	101324.9999999983
-0.8045545545545546 	299.9999999999858 	3.179111567956346e-13 	101324.9999999984
-0.8020520520520523 	299.999999999997 	1.146154678987402e-12 	101324.9999999983
-0.7995495495495494 	300.0000000000038 	1.653886792152793e-12 	101324.9999999984
-0.7970470470470474 	299.9999999999995 	1.940901228017257e-12 	101324.9999999983
-0.7945445445445446 	300.0000000000003 	2.206385584831106e-12 	101324.9999999981
-0.7920420420420423 	300.0000000000015 	1.475229078367561e-12 	101324.9999999981
-0.7895395395395397 	300.0000000000025 	2.373449489518535e-12 	101324.9999999982
-0.7870370370370371 	300 	1.284625429779626e-12 	101324.9999999981
-0.7845345345345348 	299.9999999999911 	1.606805772785597e-12 	101324.9999999982
-0.7820320320320323 	299.9999999999919 	8.602341923594295e-13 	101324.9999999982
-0.7795295295295296 	299.9999999999831 	2.167708999163975e-12 	101324.9999999982
-0.7770270270270272 	299.99999999998 	1.443524541266841e-12 	101324.9999999981
-0.7745245245245247 	299.9999999999796 	1.619188908080888e-12 	101324.9999999981
-0.7720220220220222 	299.9999999999892 	1.300930409918923e-12 	101324.9999999983
-0.7695195195195199 	299.9999999999895 	9.231510329664601e-13 	101324.9999999983
-0.767017017017017 	299.9999999999949 	1.439100176238336e-12 	101324.9999999984
-0.7645145145145147 	300.0000000000032 	1.157538110160104e-12 	101324.9999999985
-0.7620120120120122 	300.0000000000052 	1.81078049928154e-12 	101324.9999999985
-0.7595095095095097 	299.9999999999838 	2.226536131653108e-12 	101324.9999999986
-0.7570070070070072 	299.9999999999837 	3.600985970066349e-12 	101324.9999999985
-0.7545045045045048 	299.9999999999965 	2.618097156400781e-12 	101324.9999999983
-0.7520020020020022 	299.9999999999902 	3.209828680473883e-12 	101324.9999999983
-0.7494994994994997 	299.999999999989 	1.586038137044948e-12 	101324.9999999984
-0.7469969969969972 	299.9999999999973 	2.079368182890326e-12 	101324.9999999985
-0.7444944944944945 	299.999999999996 	1.076847741535834e-12 	101324.9999999985
-0.7419919919919924 	299.9999999999964 	1.57004574552807e-12 	101324.9999999986
-0.7394894894894897 	299.9999999999894 	2.209635819882907e-12 	101324.9999999985
-0.7369869869869872 	299.9999999999973 	1.985578322994239e-12 	101324.9999999983
-0.7344844844844846 	299.9999999999931 	2.664476200423857e-12 	101324.9999999982
-0.7319819819819822 	300.0000000000005 	1.48075342477299e-12 	101324.9999999983
-0.7294794794794797 	299.9999999999985 	2.718974666133555e-12 	101324.9999999984
-0.7269769769769773 	300.000000000002 	2.190294935686433e-12 	101324.9999999983
-0.7244744744744747 	300.0000000000026 	2.174720592033921e-12 	101324.9999999981
-0.721971971971972 	299.9999999999888 	2.159637118522943e-12 	101324.9999999981
-0.7194694694694695 	299.9999999999951 	1.816835124009448e-12 	101324.9999999982
-0.7169669669669674 	299.999999999984 	1.645130069502861e-12 	101324.9999999981
-0.7144644644644647 	299.9999999999921 	1.674705895695239e-12 	101324.9999999982
-0.711961961961962 	300.0000000000023 	1.596166551583343e-12 	101324.9999999981
-0.7094594594594597 	300.0000000000035 	7.955801228919917e-13 	101324.9999999981
-0.7069569569569573 	300.0000000000038 	1.297392099209593e-12 	101324.999999998
-0.7044544544544545 	300.0000000000055 	7.61819994150191e-13 	101324.9999999979
-0.7019519519519523 	300.0000000000013 	5.552521479391131e-13 	101324.9999999978
-0.6994494494494495 	299.9999999999829 	9.75237542842103e-13 	101324.9999999978
-0.6969469469469471 	299.9999999999876 	1.488015447243648e-12 	101324.9999999979
-0.6944444444444446 	299.9999999999927 	1.687829899729707e-12 	101324.9999999979
-0.6919419419419421 	300.0000000000061 	1.89086694497863e-12 	101324.9999999982
-0.6894394394394396 	299.9999999999981 	1.912601912157882e-12 	101324.9999999983
-0.6869369369369374 	300.0000000000016 	2.155521906833342e-12 	101324.9999999984
-0.6844344344344344 	300.0000000000047 	1.648259849031638e-12 	101324.9999999984
-0.6819319319319321 	299.9999999999906 	1.873357498262771e-12 	101324.9999999985
-0.6794294294294296 	299.9999999999865 	1.724390451381591e-12 	101324.9999999984
-0.6769269269269272 	299.9999999999798 	1.737727258824372e-12 	101324.9999999983
-0.6744244244244245 	299.9999999999927 	1.07075993859842e-12 	101324.9999999983
-0.6719219219219222 	299.999999999992 	5.12312123753411e-13 	101324.9999999982
-0.6694194194194195 	299.9999999999996 	5.987984695375748e-13 	101324.9999999983
-0.6669169169169172 	300.000000000004 	4.584623670317457e-13 	101324.9999999984
-0.6644144144144146 	299.9999999999908 	4.109728521915185e-13 	101324.9999999983
-0.661911911911912 	299.9999999999924 	5.899921053123696e-13 	101324.9999999984
-0.6594094094094097 	299.9999999999952 	7.666931716506646e-13 	101324.9999999985
-0.656906906906907 	299.9999999999857 	3.718412030797553e-13 	101324.9999999987
-0.6544044044044046 	299.9999999999857 	7.711351665367187e-13 	101324.9999999986
-0.6519019019019021 	299.9999999999977 	5.260736718621155e-13 	101324.9999999984
-0.6493993993993996 	300.000000000006 	1.599962997155122e-12 	101324.9999999984
-0.6468968968968971 	300.0000000000073 	1.115593773050411e-12 	101324.9999999985
-0.6443943943943946 	299.9999999999979 	1.797668614387933e-12 	101324.9999999984
-0.6418918918918921 	299.9999999999988 	7.516681798803806e-13 	101324.9999999981
-0.6393893893893897 	300.0000000000002 	7.845563877869464e-13 	101324.9999999979
-0.6368868868868871 	299.9999999999936 	6.273850121670766e-13 	101324.999999998
-0.6343843843843846 	300.0000000000007 	5.117382701020542e-13 	101324.9999999981
-0.6318818818818821 	299.9999999999919 	5.115412914787478e-13 	101324.9999999983
-0.6293793793793795 	300.0000000000018 	4.16243096212547e-13 	101324.9999999985
-0.6268768768768773 	300.0000000000048 	4.059569921035035e-13 	101324.9999999984
-0.6243743743743745 	299.9999999999958 	3.581559625463097e-13 	101324.9999999981
-0.6218718718718721 	300.0000000000017 	8.461123500557313e-13 	101324.9999999982
-0.6193693693693696 	299.9999999999856 	5.246520105142535e-13 	101324.9999999982
-0.6168668668668671 	299.9999999999962 	8.045238639279402e-13 	101324.9999999982
-0.6143643643643645 	300.0000000000028 	7.048743048947734e-13 	101324.9999999983
-0.6118618618618621 	299.999999999995 	3.670779888493475e-13 	101324.9999999983
-0.6093593593593596 	299.9999999999945 	3.160560026133221e-13 	101324.9999999981
-0.6068568568568571 	299.9999999999952 	3.614487985613802e-13 	101324.9999999982
-0.6043543543543546 	299.9999999999905 	4.114064082970327e-13 	101324.9999999982
-0.6018518518518521 	299.999999999993 	6.345601784758908e-13 	101324.9999999983
-0.5993493493493496 	299.999999999986 	1.151776369187902e-12 	101324.9999999985
-0.5968468468468471 	299.9999999999893 	1.210017123735415e-12 	101324.9999999984
-0.5943443443443446 	299.9999999999971 	1.672075192665707e-12 	101324.9999999985
-0.591841841841842 	299.9999999999888 	1.1094494594417e-12 	101324.9999999983
-0.5893393393393397 	299.9999999999898 	1.060399802416964e-12 	101324.9999999983
-0.5868368368368371 	299.9999999999969 	8.779544468288043e-13 	101324.9999999982
-0.5843343343343346 	299.9999999999982 	1.229049996591078e-12 	101324.9999999982
-0.5818318318318321 	300.0000000000054 	1.336812933175537e-12 	101324.9999999983
-0.5793293293293297 	299.9999999999965 	1.152926840132912e-12 	101324.9999999982
-0.5768268268268271 	300.0000000000001 	9.475664252303861e-13 	101324.9999999981
-0.5743243243243245 	300.0000000000044 	9.513306654969393e-13 	101324.999999998
-0.5718218218218221 	300.0000000000048 	9.409867431161663e-13 	101324.9999999981
-0.5693193193193196 	300.0000000000098 	1.239877098502022e-12 	101324.9999999982
-0.5668168168168171 	299.9999999999966 	1.874516975286271e-12 	101324.9999999982
-0.5643143143143147 	299.9999999999869 	1.124632517267797e-12 	101324.9999999981
-0.5618118118118121 	300.000000000003 	1.842415520939678e-12 	101324.9999999983
-0.5593093093093094 	300.0000000000083 	1.155843572084568e-12 	101324.9999999984
-0.5568068068068072 	300.000000000004 	2.01566062073909e-12 	101324.9999999984
-0.5543043043043046 	300.000000000005 	1.905266669616775e-12 	101324.9999999985
-0.551801801801802 	299.9999999999898 	1.819460811076589e-12 	101324.9999999985
-0.5492992992992995 	300.0000000000003 	1.255404267795089e-12 	101324.9999999984
-0.5467967967967969 	300.0000000000044 	1.252466846218742e-12 	101324.9999999983
-0.5442942942942947 	300.0000000000013 	1.502671090846983e-12 	101324.9999999983
-0.5417917917917919 	299.9999999999892 	1.625314765255094e-12 	101324.9999999982
-0.5392892892892895 	299.9999999999869 	1.405468485152329e-12 	101324.9999999983
-0.536786786786787 	299.9999999999899 	1.489718093995032e-12 	101324.9999999983
-0.5342842842842846 	299.9999999999909 	1.419905402318994e-12 	101324.9999999983
-0.531781781781782 	299.9999999999839 	1.612393665759106e-12 	101324.9999999981
-0.5292792792792794 	299.9999999999812 	1.19921130016209e-12 	101324.9999999982
-0.526776776776777 	299.9999999999798 	2.162659498703236e-12 	101324.9999999986
-0.5242742742742745 	299.9999999999942 	6.844942376157074e-13 	101324.9999999985
-0.521771771771772 	300.0000000000015 	2.34800246599165e-12 	101324.9999999987
-0.5192692692692695 	299.99999999999 	1.880020305022193e-12 	101324.9999999986
-0.516766766766767 	299.9999999999993 	2.148291787277054e-12 	101324.9999999986
-0.5142642642642645 	299.9999999999928 	1.381268465162613e-12 	101324.9999999985
-0.511761761761762 	299.9999999999892 	1.630768882771044e-12 	101324.9999999984
-0.5092592592592596 	299.9999999999949 	7.908755742697215e-13 	101324.9999999983
-0.506756756756757 	299.9999999999893 	1.170390367822045e-12 	101324.9999999982
-0.5042542542542544 	299.9999999999987 	6.440990205163946e-13 	101324.9999999983
-0.5017517517517521 	300.0000000000065 	1.311148484744883e-12 	101324.9999999982
-0.4992492492492494 	300.0000000000067 	9.026483415876875e-13 	101324.9999999981
-0.496746746746747 	299.999999999997 	8.600676010884403e-13 	101324.9999999982
-0.4942442442442445 	299.9999999999849 	3.030258431843708e-13 	101324.9999999982
-0.4917417417417421 	299.9999999999857 	1.890786987440676e-13 	101324.9999999982
-0.4892392392392395 	299.9999999999895 	5.205932127560477e-13 	101324.9999999984
-0.486736736736737 	299.9999999999888 	4.944587483141436e-13 	101324.9999999985
-0.4842342342342345 	299.9999999999814 	1.259723771332056e-12 	101324.9999999986
-0.481731731731732 	300.0000000000091 	8.022715143711703e-13 	101324.9999999988
-0.4792292292292296 	300.0000000000066 	8.788128401812776e-13 	101324.999999999
-0.4767267267267268 	299.9999999999916 	1.214681500611012e-12 	101324.9999999988
-0.4742242242242246 	300.0000000000001 	1.532011509249013e-12 	101324.9999999986
-0.471721721721722 	299.9999999999906 	8.371437445271884e-13 	101324.9999999987
-0.4692192192192195 	299.9999999999959 	1.53910085417086e-12 	101324.9999999989
-0.4667167167167169 	299.9999999999791 	1.235870618039835e-12 	101324.999999999
-0.4642142142142145 	299.9999999999988 	2.090960408495561e-12 	101324.9999999989
-0.461711711711712 	300.0000000000056 	1.171669043822245e-12 	101324.9999999988
-0.4592092092092094 	300.0000000000025 	1.230107574907575e-12 	101324.9999999986
-0.456706706706707 	300.0000000000117 	5.044028876627879e-13 	101324.9999999986
-0.4542042042042045 	299.9999999999871 	1.194500757598877e-13 	101324.9999999988
-0.451701701701702 	299.9999999999901 	2.79397034268806e-13 	101324.9999999988
-0.4491991991991995 	299.9999999999916 	1.403263864085539e-13 	101324.9999999987
-0.4466966966966969 	299.9999999999908 	9.728343640239656e-14 	101324.9999999986
-0.4441941941941945 	299.9999999999984 	4.52219246390698e-13 	101324.9999999986
-0.441691691691692 	299.9999999999917 	4.742250009653194e-13 	101324.9999999986
-0.4391891891891895 	299.9999999999969 	1.117424611186701e-12 	101324.9999999985
-0.436686686686687 	299.999999999994 	1.072416343456235e-12 	101324.9999999985
-0.4341841841841846 	299.9999999999992 	2.03742073555873e-12 	101324.9999999984
-0.431681681681682 	299.9999999999899 	5.964330106519966e-13 	101324.9999999983
-0.4291791791791794 	299.9999999999824 	2.069362933443989e-12 	101324.9999999984
-0.426676676676677 	299.9999999999819 	1.998889941811967e-12 	101324.9999999982
-0.4241741741741744 	299.9999999999926 	2.548815969592076e-12 	101324.9999999982
-0.421671671671672 	300.0000000000017 	1.909067429683415e-12 	101324.9999999983
-0.4191691691691694 	300.0000000000107 	1.779514686697217e-12 	101324.9999999983
-0.4166666666666669 	300.0000000000127 	1.404242980388744e-12 	101324.9999999984
-0.4141641641641645 	299.9999999999878 	1.662353917658948e-12 	101324.9999999983
-0.411661661661662 	299.9999999999999 	2.509783244531391e-12 	101324.9999999983
-0.4091591591591594 	300.0000000000021 	2.00079448953207e-12 	101324.9999999985
-0.406656656656657 	299.9999999999898 	2.47988460815243e-12 	101324.9999999987
-0.4041541541541545 	300.0000000000051 	2.420048795552407e-12 	101324.999999999
-0.401651651651652 	299.9999999999848 	1.984310018163536e-12 	101324.999999999
-0.3991491491491494 	300.0000000000015 	3.01608739719739e-12 	101324.9999999992
-0.396646646646647 	299.9999999999906 	1.247937241481716e-12 	101324.9999999993
-0.3941441441441444 	299.999999999995 	3.211336423377462e-12 	101324.9999999992
-0.3916416416416419 	299.9999999999852 	1.068966838291018e-12 	101324.9999999989
-0.3891391391391395 	299.9999999999923 	1.730856064350074e-12 	101324.9999999989
-0.3866366366366368 	299.999999999992 	1.004427587997778e-12 	101324.9999999987
-0.3841341341341344 	300.000000000001 	2.07580810852372e-12 	101324.9999999985
-0.381631631631632 	299.9999999999896 	2.504822706956901e-12 	101324.9999999985
-0.3791291291291294 	300.0000000000014 	2.504069881167616e-12 	101324.9999999988
-0.3766266266266269 	300.0000000000045 	2.372021127118159e-12 	101324.999999999
-0.3741241241241244 	300.0000000000053 	1.551921449433341e-12 	101324.9999999991
-0.371621621621622 	300.0000000000056 	2.279750756486497e-12 	101324.9999999989
-0.3691191191191194 	300.0000000000038 	4.710329519761616e-13 	101324.9999999991
-0.366616616616617 	300.0000000000034 	2.007931787764538e-12 	101324.9999999989
-0.3641141141141143 	299.999999999994 	9.018718764610346e-13 	101324.9999999988
-0.3616116116116119 	299.9999999999857 	1.18118332986417e-12 	101324.9999999987
-0.3591091091091095 	299.9999999999945 	4.961462071197966e-13 	101324.9999999985
-0.356606606606607 	299.9999999999953 	3.026725320279475e-13 	101324.9999999984
-0.3541041041041044 	299.9999999999994 	2.861595264999675e-13 	101324.9999999985
-0.3516016016016019 	300.0000000000041 	1.849384362244876e-13 	101324.9999999985
-0.3490990990990994 	299.9999999999994 	8.895293169272035e-13 	101324.9999999986
-0.346596596596597 	300.0000000000077 	4.195606649737753e-13 	101324.9999999987
-0.3440940940940944 	300.000000000009 	9.301819960154632e-13 	101324.9999999988
-0.3415915915915919 	300.0000000000068 	9.522883256053092e-13 	101324.9999999986
-0.3390890890890895 	299.9999999999962 	3.036393380438138e-13 	101324.9999999985
-0.3365865865865869 	300.0000000000034 	6.135379412310598e-13 	101324.9999999985
-0.3340840840840844 	299.9999999999974 	2.947217160525256e-13 	101324.9999999984
-0.3315815815815819 	300.0000000000064 	3.755706172018128e-13 	101324.9999999985
-0.3290790790790794 	300.0000000000079 	5.416407315696631e-13 	101324.9999999985
-0.3265765765765769 	299.9999999999884 	2.95774610812867e-13 	101324.9999999987
-0.3240740740740744 	300.000000000002 	5.564965355015271e-13 	101324.9999999989
-0.3215715715715718 	300.0000000000047 	5.30891171265491e-13 	101324.999999999
-0.3190690690690695 	299.9999999999889 	2.957087972613191e-13 	101324.9999999989
-0.3165665665665668 	299.9999999999973 	3.379633202578393e-13 	101324.9999999986
-0.3140640640640644 	299.9999999999981 	1.746741813312815e-13 	101324.9999999987
-0.311561561561562 	299.9999999999854 	7.937723660846338e-13 	101324.9999999987
-0.3090590590590593 	299.9999999999999 	8.590028576756041e-13 	101324.9999999985
-0.3065565565565568 	300.000000000002 	2.003263028680655e-12 	101324.9999999986
-0.3040540540540545 	299.9999999999994 	1.055710572158275e-12 	101324.9999999987
-0.3015515515515518 	300.0000000000047 	1.828748177083795e-12 	101324.9999999989
-0.2990490490490494 	299.9999999999856 	8.28037522660722e-13 	101324.9999999988
-0.2965465465465469 	300.0000000000001 	1.495309306281111e-12 	101324.9999999988
-0.2940440440440444 	299.9999999999984 	1.546102097370059e-12 	101324.9999999989
-0.2915415415415418 	300.0000000000043 	1.357936489477994e-12 	101324.999999999
-0.2890390390390395 	300.0000000000045 	1.722220758024575e-12 	101324.9999999989
-0.2865365365365368 	299.9999999999931 	1.148275263334035e-12 	101324.9999999987
-0.2840340340340343 	299.9999999999973 	2.009166505228724e-12 	101324.9999999988
-0.2815315315315318 	299.9999999999828 	6.137079837673156e-13 	101324.9999999986
-0.2790290290290295 	299.9999999999916 	1.320430718118961e-12 	101324.9999999986
-0.2765265265265269 	300.000000000001 	7.205863214943014e-13 	101324.9999999986
-0.2740240240240244 	300.000000000006 	1.283382865194524e-12 	101324.9999999986
-0.2715215215215219 	300.0000000000061 	1.501840943024646e-12 	101324.9999999983
-0.2690190190190194 	299.9999999999854 	1.16381618807395e-12 	101324.9999999985
-0.2665165165165169 	299.9999999999984 	1.618005758545517e-12 	101324.9999999985
-0.2640140140140144 	300.0000000000003 	1.308746902616934e-12 	101324.9999999983
-0.2615115115115119 	299.9999999999999 	2.219228648463393e-12 	101324.9999999984
-0.2590090090090094 	299.9999999999823 	1.010252444652035e-12 	101324.9999999984
-0.2565065065065068 	299.9999999999962 	1.114959369432935e-12 	101324.9999999984
-0.2540040040040044 	299.9999999999947 	9.76242035714581e-13 	101324.9999999984
-0.2515015015015019 	300.0000000000038 	1.389907352919864e-12 	101324.9999999985
-0.2489989989989994 	300.0000000000075 	2.68806848751767e-12 	101324.9999999985
-0.2464964964964968 	299.9999999999939 	2.219132652130682e-12 	101324.9999999984
-0.2439939939939944 	299.9999999999951 	3.136747415685135e-12 	101324.9999999985
-0.2414914914914919 	299.9999999999901 	1.543549386964454e-12 	101324.9999999987
-0.2389889889889893 	299.9999999999959 	2.98259511693965e-12 	101324.9999999986
-0.2364864864864869 	300.0000000000067 	2.021255266189041e-12 	101324.9999999986
-0.2339839839839843 	299.9999999999918 	3.113923103520597e-12 	101324.9999999985
-0.2314814814814819 	299.9999999999926 	1.583054323768736e-12 	101324.9999999984
-0.2289789789789792 	299.9999999999803 	2.865949797518976e-12 	101324.9999999983
-0.2264764764764769 	299.9999999999854 	1.749214575758806e-12 	101324.9999999984
-0.2239739739739743 	299.9999999999969 	2.125926386810137e-12 	101324.9999999986
-0.2214714714714718 	299.9999999999853 	2.050069384750507e-12 	101324.9999999984
-0.2189689689689693 	299.9999999999925 	1.32981487828309e-12 	101324.9999999985
-0.2164664664664669 	299.9999999999938 	2.144987154078406e-12 	101324.9999999985
-0.2139639639639643 	299.9999999999852 	8.297245615962755e-13 	101324.9999999985
-0.2114614614614618 	299.9999999999943 	1.589555655429683e-12 	101324.9999999985
-0.2089589589589593 	300.000000000001 	1.381947646781951e-12 	101324.9999999983
-0.2064564564564568 	300 	1.675129835716773e-12 	101324.9999999981
-0.2039539539539543 	299.9999999999839 	2.12334022901985e-12 	101324.9999999982
-0.2014514514514518 	299.9999999999798 	7.369288209598043e-13 	101324.9999999982
-0.1989489489489494 	299.9999999999942 	1.672911587792619e-12 	101324.9999999982
-0.1964464464464468 	300.0000000000014 	3.869596246270106e-13 	101324.9999999981
-0.1939439439439443 	300.0000000000014 	1.328028754210574e-12 	101324.999999998
-0.1914414414414418 	299.9999999999886 	3.98536135309336e-13 	101324.999999998
-0.1889389389389393 	299.9999999999973 	5.09786915187291e-13 	101324.9999999979
-0.1864364364364368 	300.0000000000014 	5.949985249205261e-13 	101324.999999998
-0.1839339339339343 	299.9999999999964 	5.768407128697457e-13 	101324.9999999981
-0.1814314314314318 	299.9999999999956 	1.183180065618923e-12 	101324.999999998
-0.1789289289289293 	299.9999999999798 	1.011798845323515e-12 	101324.9999999982
-0.1764264264264268 	299.9999999999912 	6.646489705592031e-13 	101324.9999999983
-0.1739239239239243 	299.999999999979 	3.295877948710064e-13 	101324.9999999981
-0.1714214214214218 	299.9999999999968 	1.082778743995818e-13 	101324.999999998
-0.1689189189189193 	299.9999999999865 	7.089181795064175e-13 	101324.9999999981
-0.1664164164164168 	299.9999999999974 	1.379763007648944e-13 	101324.9999999979
-0.1639139139139143 	299.9999999999981 	1.086226398675927e-12 	101324.9999999977
-0.1614114114114118 	300.0000000000016 	8.771795327902748e-13 	101324.9999999978
-0.1589089089089093 	299.999999999999 	2.559391079317174e-12 	101324.999999998
-0.1564064064064068 	299.9999999999919 	1.647346448362871e-12 	101324.9999999979
-0.1539039039039043 	300.0000000000024 	2.863627637084092e-12 	101324.9999999978
-0.1514014014014018 	300.0000000000048 	6.286254032011098e-13 	101324.9999999978
-0.1488988988988993 	300.0000000000043 	3.358709451707044e-12 	101324.9999999979
-0.1463963963963968 	300.0000000000013 	1.22452490249481e-12 	101324.9999999978
-0.1438938938938943 	299.9999999999957 	3.231232145343593e-12 	101324.9999999977
-0.1413913913913918 	299.9999999999813 	1.290432117404778e-12 	101324.9999999977
-0.1388888888888893 	299.9999999999919 	2.011548967225672e-12 	101324.9999999979
-0.1363863863863868 	299.9999999999751 	1.671141248750024e-12 	101324.9999999976
-0.1338838838838843 	299.9999999999893 	2.09341272861037e-12 	101324.9999999976
-0.1313813813813818 	299.9999999999974 	2.335266374605515e-12 	101324.9999999973
-0.1288788788788793 	299.9999999999894 	2.738221298067247e-12 	101324.9999999972
-0.1263763763763768 	299.9999999999956 	2.077357151565554e-12 	101324.9999999972
-0.1238738738738743 	299.9999999999887 	1.939081893415634e-12 	101324.9999999974
-0.1213713713713717 	299.9999999999995 	8.072948517948574e-13 	101324.9999999975
-0.1188688688688693 	300.0000000000065 	1.729292872711995e-12 	101324.9999999973
-0.1163663663663668 	299.9999999999754 	3.937766982467955e-13 	101324.9999999974
-0.1138638638638643 	299.9999999999972 	1.593390239666624e-12 	101324.9999999974
-0.1113613613613618 	299.9999999999987 	6.635352562589524e-13 	101324.9999999974
-0.1088588588588592 	299.9999999999983 	2.521045574055744e-12 	101324.9999999974
-0.1063563563563568 	299.9999999999917 	3.127137989369986e-13 	101324.9999999973
-0.1038538538538543 	299.9999999999997 	1.549773478503638e-12 	101324.999999997
-0.1013513513513517 	300.0000000000007 	8.585691400468807e-13 	101324.9999999971
-0.09884884884884926 	299.9999999999902 	1.455884330587523e-12 	101324.9999999971
-0.09634634634634676 	299.9999999999819 	1.139213205918388e-12 	101324.9999999972
-0.09384384384384425 	299.9999999999793 	6.989440561078616e-13 	101324.9999999969
-0.09134134134134177 	300.0000000000015 	7.683820023982778e-14 	101324.999999997
-0.08883883883883925 	300.0000000000006 	4.185826452236915e-13 	101324.9999999968
-0.08633633633633674 	299.9999999999889 	8.321574408476862e-13 	101324.9999999969
-0.08383383383383426 	299.9999999999978 	5.467342836181099e-13 	101324.9999999968
-0.08133133133133173 	299.99999999999 	8.396140829667252e-13 	101324.9999999968
-0.07882882882882926 	299.9999999999757 	8.045264159534279e-13 	101324.999999997
-0.07632632632632676 	299.9999999999952 	1.091100145436524e-12 	101324.9999999973
-0.07382382382382424 	299.9999999999761 	1.03381114630255e-12 	101324.9999999975
-0.07132132132132173 	299.9999999999992 	6.809747803822803e-13 	101324.9999999976
-0.06881881881881925 	299.9999999999902 	9.831170629294843e-13 	101324.9999999976
-0.06631631631631671 	299.9999999999761 	1.127939796913735e-12 	101324.9999999977
-0.06381381381381425 	299.9999999999891 	1.441723682779055e-12 	101324.9999999976
-0.06131131131131173 	299.999999999989 	1.940717911217678e-12 	101324.9999999975
-0.05880880880880923 	299.9999999999848 	1.651338648737983e-12 	101324.9999999976
-0.05630630630630672 	299.9999999999907 	1.201819704178789e-12 	101324.9999999977
-0.05380380380380424 	300.0000000000061 	1.210006109500796e-12 	101324.9999999976
-0.05130130130130173 	300.0000000000012 	1.503311633450725e-12 	101324.9999999975
-0.04879879879879922 	299.9999999999877 	1.301886046692234e-12 	101324.9999999973
-0.04629629629629672 	299.9999999999869 	4.41748048750122e-13 	101324.9999999972
-0.04379379379379422 	299.9999999999773 	2.055619172852632e-13 	101324.999999997
-0.04129129129129173 	299.9999999999956 	3.926951704584886e-13 	101324.999999997
-0.03878878878878922 	299.9999999999985 	1.018368830234773e-12 	101324.9999999972
-0.03628628628628671 	299.9999999999957 	1.435372761124142e-12 	101324.9999999972
-0.03378378378378422 	299.999999999986 	2.290361838670228e-12 	101324.9999999974
-0.03128128128128172 	299.9999999999919 	1.913225528969064e-12 	101324.9999999976
-0.02877877877877922 	299.9999999999915 	2.223000166555243e-12 	101324.9999999973
-0.0262762762762767 	299.9999999999771 	1.570254064564786e-12 	101324.9999999972
-0.02377377377377422 	300.0000000000045 	1.197678187212359e-12 	101324.9999999972
-0.0212712712712717 	299.9999999999772 	9.563408090201049e-13 	101324.999999997
-0.01876876876876921 	299.9999999999942 	1.528761096696894e-13 	101324.9999999968
-0.01626626626626671 	299.999999999999 	6.064374684597117e-13 	101324.999999997
-0.0137637637637642 	299.9999999999899 	9.537227517587423e-14 	101324.999999997
-0.0112612612612617 	300.0000000000015 	1.199577691242191e-13 	101324.999999997
-0.008758758758759198 	299.9999999999975 	1.43939390448848e-13 	101324.9999999966
-0.006256256256256697 	299.9999999999741 	1.322553809786161e-13 	101324.9999999967
-0.003753753753754195 	299.9999999999882 	1.97434270982446e-13 	101324.9999999968
-0.001251251251251693 	299.9999999999839 	1.535799076957664e-13 	101324.9999999969
0.00125125125125081 	299.9999999999877 	4.02767130517628e-15 	101324.9999999969
0.003753753753753312 	299.9999999999908 	3.282671861372269e-13 	101324.9999999967
0.006256256256255817 	299.9999999999745 	1.903816398265908e-13 	101324.9999999968
0.008758758758758317 	299.999999999996 	1.138205228310976e-13 	101324.9999999964
0.01126126126126082 	299.9999999999985 	4.220027199762058e-13 	101324.9999999965
0.01376376376376332 	299.9999999999906 	2.978581315993017e-13 	101324.9999999965
0.01626626626626582 	300.0000000000006 	1.765512483131617e-13 	101324.9999999965
0.01876876876876833 	299.9999999999881 	3.618385431439983e-13 	101324.9999999967
0.02127127127127083 	299.9999999999932 	3.002436290573269e-13 	101324.9999999971
0.02377377377377332 	299.9999999999979 	6.343042613822624e-13 	101324.9999999971
0.02627627627627583 	299.99999999998 	7.224889753162543e-13 	101324.9999999972
0.02877877877877833 	299.9999999999986 	2.637323720136354e-13 	101324.9999999972
0.03128128128128083 	299.9999999999874 	5.252249649469689e-13 	101324.9999999969
0.03378378378378333 	299.999999999975 	2.910849028439265e-13 	101324.9999999968
0.03628628628628584 	299.9999999999968 	1.749558273352892e-13 	101324.9999999968
0.03878878878878834 	299.9999999999969 	3.526720135998932e-13 	101324.999999997
0.04129129129129084 	299.9999999999936 	2.747821029881188e-13 	101324.9999999971
0.04379379379379333 	299.9999999999852 	7.286834172218366e-13 	101324.9999999972
0.04629629629629585 	299.9999999999744 	1.277972093720533e-12 	101324.9999999971
0.04879879879879834 	299.9999999999895 	1.931347719736661e-12 	101324.9999999971
0.05130130130130085 	299.9999999999994 	2.150629673559084e-12 	101324.9999999974
0.05380380380380335 	300.0000000000065 	1.876327294662287e-12 	101324.9999999973
0.05630630630630584 	299.9999999999965 	1.46143440696093e-12 	101324.9999999972
0.05880880880880836 	299.999999999986 	1.057897855882544e-12 	101324.9999999971
0.06131131131131085 	299.9999999999926 	1.280363135327114e-12 	101324.9999999972
0.06381381381381336 	299.9999999999881 	9.879184597489999e-13 	101324.9999999974
0.06631631631631586 	299.9999999999732 	6.924048567249592e-13 	101324.9999999973
0.06881881881881835 	299.9999999999874 	4.179264440680327e-13 	101324.9999999975
0.07132132132132088 	300.0000000000027 	1.910018745830491e-13 	101324.9999999974
0.07382382382382337 	299.9999999999783 	3.107836669075795e-13 	101324.9999999975
0.07632632632632587 	299.9999999999903 	8.01624168316943e-13 	101324.9999999973
0.07882882882882837 	299.9999999999829 	8.92582035706282e-13 	101324.9999999973
0.08133133133133086 	299.9999999999992 	1.645176487505979e-12 	101324.9999999972
0.08383383383383337 	300.000000000003 	1.732386059903906e-12 	101324.9999999974
0.08633633633633589 	299.9999999999769 	2.307154954215383e-12 	101324.9999999975
0.08883883883883838 	300.000000000003 	2.771227079182516e-12 	101324.9999999974
0.09134134134134086 	299.9999999999978 	2.190240476525054e-12 	101324.9999999971
0.09384384384384339 	299.9999999999793 	2.365355315693126e-12 	101324.999999997
0.09634634634634588 	299.9999999999939 	2.087880587016892e-12 	101324.9999999972
0.09884884884884838 	299.9999999999945 	1.674731370591539e-12 	101324.9999999972
0.1013513513513509 	300.0000000000082 	1.814590096329407e-12 	101324.9999999974
0.1038538538538534 	299.999999999984 	2.304676589181582e-12 	101324.9999999974
0.1063563563563559 	300.0000000000014 	2.656712636641397e-12 	101324.9999999977
0.1088588588588584 	300.0000000000021 	2.205631977589029e-12 	101324.9999999975
0.1113613613613609 	299.9999999999939 	1.939899158697362e-12 	101324.9999999975
0.1138638638638634 	299.9999999999911 	1.026113690386571e-12 	101324.9999999974
0.1163663663663659 	299.9999999999855 	1.474244914811245e-12 	101324.9999999973
0.1188688688688684 	299.9999999999918 	1.802624674243339e-12 	101324.9999999976
0.1213713713713709 	299.9999999999967 	1.661148216535663e-12 	101324.9999999975
0.1238738738738734 	299.9999999999803 	1.450930201181752e-12 	101324.9999999974
0.1263763763763759 	299.9999999999996 	1.542115610165163e-12 	101324.9999999976
0.1288788788788784 	299.9999999999985 	1.31469667378063e-12 	101324.9999999977
0.1313813813813809 	299.9999999999968 	1.680825595067964e-12 	101324.9999999974
0.1338838838838834 	299.9999999999895 	1.822778786769107e-12 	101324.9999999977
0.1363863863863859 	300.0000000000042 	1.413962665471429e-12 	101324.9999999976
0.1388888888888884 	300.0000000000055 	6.689203406495934e-13 	101324.9999999976
0.1413913913913909 	299.9999999999987 	1.813903341792981e-13 	101324.9999999976
0.1438938938938934 	299.9999999999939 	3.043415365136196e-16 	101324.9999999974
0.1463963963963959 	299.99999999999 	3.141674480913974e-14 	101324.9999999974
0.1488988988988985 	299.9999999999815 	4.7984778786133e-13 	101324.9999999976
0.1514014014014009 	299.9999999999922 	9.978426455877282e-13 	101324.9999999976
0.1539039039039035 	299.9999999999897 	2.099003428566765e-12 	101324.9999999976
0.1564064064064059 	299.9999999999922 	1.605606185750211e-12 	101324.9999999975
0.1589089089089084 	299.9999999999919 	3.018137465979527e-12 	101324.9999999976
0.1614114114114109 	299.9999999999908 	1.723567206236458e-12 	101324.9999999975
0.1639139139139134 	299.9999999999832 	2.621371902363683e-12 	101324.9999999976
0.166416416416416 	299.9999999999976 	2.214771508202687e-12 	101324.9999999979
0.1689189189189185 	300.0000000000068 	1.265532746714923e-12 	101324.9999999978
0.1714214214214209 	299.999999999998 	1.239771282382758e-12 	101324.9999999978
0.1739239239239235 	299.999999999999 	9.157722494207453e-13 	101324.9999999979
0.1764264264264259 	299.9999999999878 	1.76941957941562e-12 	101324.9999999976
0.1789289289289284 	300.0000000000024 	7.593661559910745e-13 	101324.9999999977
0.181431431431431 	299.9999999999946 	2.325167250553635e-12 	101324.9999999978
0.1839339339339334 	299.999999999996 	1.643807500837167e-12 	101324.9999999979
0.186436436436436 	299.9999999999906 	2.545825561872738e-12 	101324.9999999982
0.1889389389389385 	299.9999999999952 	2.188734717948311e-12 	101324.9999999983
0.191441441441441 	299.999999999993 	1.498961771844928e-12 	101324.9999999983
0.1939439439439434 	299.9999999999828 	1.970598955903936e-12 	101324.9999999981
0.196446446446446 	299.999999999992 	1.348584291601644e-12 	101324.9999999981
0.1989489489489485 	299.9999999999927 	2.139726080186234e-12 	101324.9999999983
0.2014514514514509 	299.9999999999968 	1.043970428916361e-12 	101324.9999999983
0.2039539539539535 	299.9999999999955 	1.867672040269018e-12 	101324.9999999983
0.2064564564564559 	299.999999999989 	1.671324125441968e-12 	101324.9999999984
0.2089589589589585 	299.9999999999969 	1.947058115766114e-12 	101324.9999999983
0.211461461461461 	299.999999999989 	2.226957652670353e-12 	101324.9999999984
0.2139639639639635 	299.9999999999991 	2.609088576277467e-12 	101324.9999999982
0.2164664664664659 	300.0000000000048 	2.848671156434351e-12 	101324.9999999984
0.2189689689689684 	300.0000000000048 	2.272850346021729e-12 	101324.9999999985
0.221471471471471 	300.0000000000007 	3.41801182640752e-12 	101324.9999999985
0.2239739739739735 	299.9999999999908 	2.31910358405773e-12 	101324.9999999984
0.226476476476476 	300.0000000000005 	2.978107556487214e-12 	101324.9999999984
0.2289789789789785 	300.0000000000012 	2.284191359789036e-12 	101324.9999999984
0.231481481481481 	299.9999999999971 	1.928634321663762e-12 	101324.9999999985
0.2339839839839835 	299.9999999999948 	1.758871747771943e-12 	101324.9999999985
0.236486486486486 	300.0000000000062 	1.404171985093114e-12 	101324.9999999984
0.2389889889889885 	299.9999999999997 	1.927753782686117e-12 	101324.9999999985
0.241491491491491 	299.9999999999842 	1.141704135143174e-12 	101324.9999999984
0.2439939939939935 	299.9999999999978 	2.612227945470133e-12 	101324.9999999984
0.246496496496496 	299.999999999998 	1.191109538276379e-12 	101324.9999999987
0.2489989989989985 	300.0000000000039 	1.484614435616533e-12 	101324.9999999987
0.251501501501501 	300.0000000000036 	8.851561223247278e-13 	101324.9999999985
0.2540040040040035 	299.9999999999981 	1.134698784325335e-12 	101324.9999999985
0.256506506506506 	300.0000000000035 	1.295469823662808e-12 	101324.9999999986
0.2590090090090086 	299.9999999999845 	6.284021478531526e-13 	101324.9999999985
0.261511511511511 	300.0000000000053 	2.102976667367689e-12 	101324.9999999987
0.2640140140140135 	299.9999999999959 	7.981927078973786e-13 	101324.9999999987
0.2665165165165161 	299.9999999999893 	1.395463260423034e-12 	101324.9999999986
0.2690190190190185 	300.0000000000088 	6.384336018065405e-13 	101324.9999999986
0.271521521521521 	300.0000000000013 	6.019606685263031e-13 	101324.9999999983
0.2740240240240235 	300.000000000003 	7.6511712482457e-13 	101324.9999999984
0.276526526526526 	299.9999999999985 	4.961128820146532e-13 	101324.9999999983
0.2790290290290286 	299.9999999999897 	1.099671168972408e-12 	101324.9999999986
0.281531531531531 	299.9999999999816 	3.248548518579623e-13 	101324.9999999987
0.2840340340340335 	299.9999999999976 	1.239642949760452e-12 	101324.9999999989
0.2865365365365361 	299.9999999999935 	8.143504872977328e-13 	101324.9999999988
0.2890390390390385 	299.9999999999986 	1.715577870554553e-12 	101324.9999999989
0.291541541541541 	299.9999999999989 	9.663719702893746e-13 	101324.9999999989
0.2940440440440436 	299.9999999999986 	7.64971010394624e-13 	101324.9999999988
0.296546546546546 	299.9999999999969 	3.336013742622347e-13 	101324.9999999986
0.2990490490490486 	299.9999999999836 	6.0296524272975e-13 	101324.9999999984
0.3015515515515511 	300.0000000000055 	1.205575821463077e-12 	101324.9999999983
0.3040540540540535 	299.9999999999964 	1.339557835748202e-12 	101324.9999999985
0.3065565565565562 	299.9999999999997 	1.555508209217981e-12 	101324.9999999985
0.3090590590590585 	299.9999999999965 	1.069441755985139e-12 	101324.9999999986
0.3115615615615611 	299.9999999999861 	5.960466572893426e-13 	101324.9999999988
0.3140640640640635 	300.0000000000003 	2.672766399402657e-13 	101324.9999999988
0.316566566566566 	299.9999999999978 	6.54725247273781e-13 	101324.9999999987
0.3190690690690687 	299.9999999999894 	4.710395064053219e-13 	101324.9999999985
0.3215715715715711 	300.0000000000007 	8.384091292999341e-13 	101324.9999999987
0.3240740740740735 	299.9999999999973 	5.266679065000602e-13 	101324.9999999987
0.326576576576576 	299.9999999999771 	6.873592416225167e-13 	101324.9999999986
0.3290790790790786 	299.999999999999 	1.09921777182712e-12 	101324.9999999986
0.3315815815815811 	300.0000000000094 	4.400252082423946e-13 	101324.9999999989
0.3340840840840836 	300.0000000000018 	1.921571384510943e-13 	101324.9999999989
0.3365865865865861 	300.0000000000142 	3.426820505755093e-13 	101324.9999999989
0.3390890890890886 	300.0000000000093 	1.000190300437427e-12 	101324.9999999988
0.3415915915915911 	300.0000000000005 	1.016282565011488e-12 	101324.9999999988
0.3440940940940935 	299.9999999999889 	1.742834513627357e-12 	101324.9999999989
0.3465965965965962 	300.0000000000084 	5.564046470282879e-13 	101324.9999999991
0.3490990990990985 	300.0000000000064 	1.461072868230115e-12 	101324.9999999991
0.3516016016016011 	299.999999999997 	7.707797078213506e-13 	101324.9999999991
0.3541041041041035 	300.0000000000028 	1.058284234758716e-12 	101324.9999999992
0.3566066066066061 	299.9999999999923 	1.173251725163648e-12 	101324.9999999989
0.3591091091091085 	299.9999999999856 	9.412536894427162e-13 	101324.9999999986
0.3616116116116112 	299.9999999999869 	1.285429128785594e-12 	101324.9999999986
0.3641141141141137 	299.9999999999843 	5.686081891642286e-13 	101324.9999999985
0.3666166166166161 	299.9999999999825 	1.003484067129779e-12 	101324.9999999986
0.3691191191191185 	300.0000000000055 	1.590821837265164e-12 	101324.9999999986
0.371621621621621 	300.0000000000037 	7.138854257879768e-13 	101324.9999999987
0.3741241241241237 	300.0000000000117 	4.162694606168066e-13 	101324.999999999
0.3766266266266261 	300.0000000000034 	4.813839490204755e-13 	101324.9999999989
0.3791291291291286 	299.9999999999973 	4.699868953656391e-13 	101324.999999999
0.3816316316316311 	299.9999999999851 	1.127207667204151e-12 	101324.9999999989
0.3841341341341336 	300.0000000000018 	1.052389705926868e-12 	101324.999999999
0.3866366366366362 	299.9999999999984 	1.46822217353251e-12 	101324.9999999989
0.3891391391391387 	299.9999999999899 	1.346016058000432e-12 	101324.9999999987
0.391641641641641 	299.999999999999 	1.725515564197862e-12 	101324.9999999986
0.3941441441441436 	300.0000000000005 	2.192114474210712e-12 	101324.9999999983
0.3966466466466462 	299.9999999999986 	2.402161905685211e-12 	101324.9999999982
0.3991491491491486 	299.9999999999887 	2.397450863058299e-12 	101324.9999999983
0.4016516516516512 	299.9999999999806 	2.31461204155567e-12 	101324.9999999983
0.4041541541541536 	299.9999999999912 	1.291289377077799e-12 	101324.9999999982
0.4066566566566561 	299.9999999999907 	2.059605624461155e-12 	101324.9999999985
0.4091591591591587 	299.9999999999999 	6.307699869407024e-13 	101324.9999999984
0.4116616616616612 	300.0000000000035 	1.432800377449564e-12 	101324.9999999983
0.4141641641641635 	300.0000000000082 	3.843862437517971e-13 	101324.9999999983
0.4166666666666662 	299.999999999999 	1.061995381692569e-12 	101324.9999999983
0.4191691691691687 	299.9999999999874 	1.465011568632589e-12 	101324.999999998
0.421671671671671 	300.0000000000044 	1.482549525919878e-12 	101324.9999999982
0.4241741741741737 	299.9999999999965 	2.763820390029045e-12 	101324.9999999981
0.4266766766766761 	299.9999999999917 	1.503914034762232e-12 	101324.9999999982
0.4291791791791785 	300.0000000000031 	2.826864865887036e-12 	101324.9999999982
0.4316816816816812 	299.9999999999974 	4.812181546452644e-13 	101324.9999999982
0.4341841841841836 	299.9999999999952 	2.130587481277871e-12 	101324.9999999983
0.4366866866866862 	299.9999999999867 	8.20972233831936e-13 	101324.9999999984
0.4391891891891885 	299.9999999999972 	1.588524563293708e-12 	101324.9999999984
0.4416916916916913 	299.9999999999984 	1.88808398371602e-12 	101324.9999999984
0.4441941941941936 	299.9999999999961 	2.218785306675489e-12 	101324.9999999985
0.4466966966966961 	299.9999999999843 	2.034151581110003e-12 	101324.9999999986
0.4491991991991987 	299.9999999999975 	1.564822615418097e-12 	101324.9999999986
0.4517017017017012 	299.9999999999961 	1.780988953746491e-12 	101324.9999999986
0.4542042042042035 	299.9999999999958 	1.526998308836069e-12 	101324.9999999986
0.4567067067067062 	299.9999999999958 	2.294525003268102e-12 	101324.9999999986
0.4592092092092087 	299.9999999999845 	1.891224964606746e-12 	101324.9999999985
0.4617117117117112 	300.0000000000018 	2.094149492904928e-12 	101324.9999999984
0.4642142142142137 	299.9999999999919 	2.158690339284587e-12 	101324.9999999982
0.4667167167167162 	299.9999999999953 	2.10662862373372e-12 	101324.9999999982
0.4692192192192187 	299.9999999999889 	2.049153798023907e-12 	101324.9999999984
0.4717217217217212 	300.0000000000039 	1.886135024972851e-12 	101324.9999999985
0.4742242242242236 	299.9999999999895 	1.748360205189164e-12 	101324.9999999985
0.4767267267267262 	299.9999999999978 	1.056986739148626e-12 	101324.9999999985
0.4792292292292287 	300.0000000000019 	8.111549428033179e-13 	101324.9999999983
0.4817317317317312 	300.0000000000045 	6.270689079035162e-13 	101324.9999999984
0.4842342342342336 	299.9999999999957 	6.04250549890229e-13 	101324.9999999984
0.4867367367367362 	299.9999999999897 	4.578788517746258e-13 	101324.9999999983
0.4892392392392387 	300.0000000000032 	4.705401204030936e-13 	101324.9999999981
0.4917417417417412 	300.0000000000002 	1.282502854056569e-12 	101324.9999999981
0.4942442442442437 	299.9999999999785 	1.068536304354659e-12 	101324.9999999981
0.4967467467467462 	299.9999999999831 	1.303128616663413e-12 	101324.9999999983
0.4992492492492487 	299.9999999999826 	3.846055065204304e-13 	101324.9999999986
0.5017517517517511 	299.999999999989 	7.942412753144298e-13 	101324.9999999984
0.5042542542542537 	299.9999999999931 	3.94669260934494e-13 	101324.9999999983
0.5067567567567562 	299.9999999999859 	4.029657888967637e-13 	101324.9999999981
0.5092592592592589 	299.9999999999916 	3.196423759893258e-13 	101324.999999998
0.5117617617617611 	299.999999999991 	3.830311136657971e-13 	101324.9999999979
0.5142642642642637 	299.9999999999998 	7.589534828660996e-13 	101324.999999998
0.5167667667667663 	299.9999999999961 	9.722500570069357e-13 	101324.9999999981
0.5192692692692688 	299.9999999999832 	1.213403328157296e-12 	101324.999999998
0.5217717717717714 	299.9999999999848 	1.414375230762621e-12 	101324.999999998
0.5242742742742736 	299.999999999985 	1.171490556404948e-12 	101324.9999999979
0.5267767767767763 	299.9999999999912 	6.359868096449751e-13 	101324.9999999981
0.5292792792792789 	299.9999999999874 	5.886033293603839e-13 	101324.999999998
0.5317817817817813 	299.9999999999796 	8.361057323585739e-13 	101324.9999999981
0.5342842842842837 	300.0000000000018 	8.17601534034383e-13 	101324.9999999981
0.5367867867867864 	300 	7.857027313034082e-13 	101324.9999999982
0.5392892892892888 	299.9999999999915 	6.214076286420979e-13 	101324.9999999982
0.5417917917917912 	300.0000000000003 	5.877324877359023e-13 	101324.9999999981
0.5442942942942938 	299.9999999999932 	6.068595079453558e-13 	101324.9999999981
0.5467967967967964 	299.9999999999886 	6.669828136306776e-13 	101324.9999999981
0.5492992992992988 	299.9999999999859 	1.995881554414865e-13 	101324.9999999979
0.5518018018018012 	299.9999999999866 	3.686116476512715e-13 	101324.9999999977
0.5543043043043039 	300.0000000000018 	5.115183193777304e-13 	101324.9999999976
0.5568068068068063 	299.9999999999969 	5.093861586432472e-13 	101324.9999999977
0.5593093093093087 	299.9999999999812 	6.763873422020899e-13 	101324.9999999978
0.5618118118118114 	299.9999999999926 	1.057468673986439e-12 	101324.9999999979
0.5643143143143137 	299.9999999999902 	3.427325102210494e-13 	101324.999999998
0.5668168168168163 	299.9999999999993 	5.587786386758038e-13 	101324.999999998
0.5693193193193188 	300.000000000007 	3.293669438526356e-13 	101324.9999999979
0.5718218218218213 	300.0000000000063 	5.716694203934959e-13 	101324.9999999979
0.5743243243243239 	300.0000000000026 	7.486459470473116e-13 	101324.9999999981
0.5768268268268262 	300 	6.994334253913763e-13 	101324.9999999981
0.5793293293293288 	299.9999999999894 	1.095828627716182e-12 	101324.9999999982
0.5818318318318314 	299.9999999999844 	1.604995476563477e-12 	101324.9999999983
0.5843343343343338 	299.9999999999957 	7.225204348264556e-13 	101324.999999998
0.5868368368368363 	299.9999999999938 	1.505773970558168e-12 	101324.9999999977
0.5893393393393387 	299.9999999999864 	3.659918413987559e-13 	101324.9999999978
0.5918418418418413 	299.999999999989 	7.504457706037682e-13 	101324.9999999978
0.5943443443443439 	300.0000000000019 	1.510946306995795e-12 	101324.9999999978
0.5968468468468463 	300.0000000000017 	1.316894804356338e-12 	101324.9999999977
0.5993493493493487 	300.000000000009 	7.568848348484833e-13 	101324.9999999976
0.6018518518518514 	299.9999999999942 	3.440696357724825e-13 	101324.9999999976
0.6043543543543537 	299.9999999999986 	4.432424377036413e-13 	101324.9999999976
0.6068568568568564 	299.9999999999948 	6.259916560406661e-13 	101324.9999999975
0.6093593593593587 	299.9999999999827 	5.310031762620177e-13 	101324.9999999976
0.6118618618618614 	299.9999999999835 	2.295591949189341e-13 	101324.9999999975
0.6143643643643638 	300.0000000000016 	5.736341625227366e-13 	101324.9999999975
0.6168668668668662 	299.9999999999978 	7.401719125401736e-13 	101324.9999999975
0.6193693693693688 	299.9999999999891 	8.126025269983328e-13 	101324.9999999974
0.6218718718718714 	299.9999999999918 	5.280921823093519e-13 	101324.9999999975
0.6243743743743737 	299.9999999999862 	1.106877011366986e-12 	101324.9999999975
0.6268768768768762 	299.9999999999841 	4.823094261317644e-13 	101324.9999999976
0.629379379379379 	299.999999999989 	4.092546796588987e-13 	101324.9999999977
0.6318818818818812 	299.9999999999914 	8.804400720432328e-13 	101324.9999999977
0.6343843843843838 	300.0000000000016 	1.094924794628257e-12 	101324.9999999977
0.6368868868868864 	299.9999999999951 	1.564201581833023e-12 	101324.9999999978
0.6393893893893888 	299.9999999999841 	1.60602710511565e-12 	101324.9999999977
0.6418918918918912 	299.9999999999991 	9.02475835769681e-13 	101324.9999999978
0.6443943943943939 	299.9999999999964 	2.073117053767757e-12 	101324.9999999979
0.6468968968968963 	299.9999999999939 	7.868539671285386e-13 	101324.9999999978
0.6493993993993988 	299.9999999999924 	1.172569845724967e-12 	101324.9999999977
0.6519019019019012 	299.999999999991 	5.304776449344866e-13 	101324.9999999976
0.6544044044044038 	299.9999999999779 	1.068724690261915e-12 	101324.9999999977
0.6569069069069065 	299.999999999991 	4.614097973927341e-13 	101324.9999999978
0.6594094094094087 	299.9999999999898 	7.373208704431689e-13 	101324.9999999978
0.6619119119119113 	299.9999999999885 	1.332624836731949e-12 	101324.9999999976
0.664414414414414 	299.9999999999972 	6.9154607016521e-13 	101324.9999999975
0.6669169169169162 	300.0000000000014 	5.027290773072788e-13 	101324.9999999978
0.6694194194194188 	299.9999999999961 	2.413190835360313e-13 	101324.9999999979
0.6719219219219214 	299.9999999999872 	1.184941213973708e-13 	101324.999999998
0.674424424424424 	299.9999999999943 	7.288477589425819e-14 	101324.9999999982
0.6769269269269262 	299.9999999999829 	2.554795223430752e-13 	101324.9999999979
0.679429429429429 	300.0000000000007 	4.461137216350809e-13 	101324.999999998
0.6819319319319311 	299.9999999999934 	5.662227306508179e-13 	101324.9999999979
0.6844344344344341 	299.9999999999978 	3.717525585003269e-13 	101324.9999999979
0.686936936936936 	299.9999999999986 	4.549816848061484e-13 	101324.999999998
0.6894394394394392 	299.9999999999992 	5.829287676897812e-13 	101324.9999999978
0.6919419419419413 	299.9999999999969 	8.534904531711053e-13 	101324.9999999978
0.694444444444444 	299.9999999999896 	1.086196810369669e-12 	101324.9999999979
0.6969469469469463 	299.9999999999844 	7.683565918494089e-13 	101324.9999999978
0.6994494494494489 	299.9999999999825 	6.431022474856023e-13 	101324.9999999979
0.7019519519519515 	299.9999999999968 	9.543823576750803e-13 	101324.9999999979
0.7044544544544538 	299.9999999999899 	5.618380247291606e-13 	101324.9999999978
0.7069569569569564 	299.9999999999984 	1.065702257114368e-12 	101324.9999999978
0.7094594594594589 	299.9999999999914 	6.913685813518594e-13 	101324.9999999977
0.7119619619619615 	299.9999999999813 	8.711356574074608e-13 	101324.9999999977
0.7144644644644638 	299.9999999999869 	6.594497801088031e-13 	101324.9999999978
0.7169669669669665 	299.9999999999827 	6.258852879403246e-13 	101324.9999999979
0.7194694694694688 	299.9999999999984 	8.680095642636703e-13 	101324.999999998
0.7219719719719715 	299.9999999999999 	4.263042935296447e-13 	101324.9999999981
0.7244744744744737 	300.0000000000001 	7.676579725148514e-13 	101324.9999999981
0.7269769769769764 	299.999999999999 	7.758532340710638e-13 	101324.999999998
0.7294794794794791 	299.9999999999985 	1.534661194342388e-12 	101324.9999999979
0.7319819819819813 	299.9999999999965 	9.476835991942489e-13 	101324.9999999979
0.7344844844844839 	299.9999999999844 	1.718488601495196e-12 	101324.9999999978
0.7369869869869864 	299.9999999999917 	3.270907301421101e-13 	101324.9999999979
0.739489489489489 	299.9999999999882 	9.119762937519896e-13 	101324.999999998
0.7419919919919914 	299.999999999987 	8.898611351285417e-13 	101324.999999998
0.7444944944944939 	299.999999999994 	7.315552730574481e-13 	101324.9999999979
0.7469969969969963 	299.999999999994 	1.487054721920181e-12 	101324.9999999978
0.7494994994994989 	299.9999999999872 	1.583418847470614e-12 	101324.9999999978
0.7520020020020015 	299.9999999999924 	1.658395577028989e-12 	101324.9999999977
0.7545045045045039 	299.9999999999937 	1.337906905747841e-12 	101324.9999999976
0.7570070070070062 	299.9999999999892 	9.674656983584702e-13 	101324.9999999975
0.7595095095095092 	299.9999999999852 	5.269776004354147e-13 	101324.9999999977
0.7620120120120112 	299.9999999999997 	1.346919321074925e-12 	101324.9999999977
0.7645145145145138 	299.9999999999976 	1.43601660694796e-12 	101324.9999999977
0.7670170170170165 	299.999999999987 	1.001082318390247e-12 	101324.9999999976
0.7695195195195191 	299.9999999999834 	1.688714016814151e-12 	101324.9999999976
0.7720220220220213 	299.9999999999878 	8.568335717694667e-13 	101324.9999999975
0.7745245245245239 	299.9999999999885 	8.357979378216088e-13 	101324.9999999975
0.7770270270270263 	299.9999999999938 	1.499295244391426e-12 	101324.9999999976
0.779529529529529 	299.9999999999937 	1.078740474847672e-12 	101324.9999999977
0.7820320320320313 	299.9999999999909 	1.581748862074483e-12 	101324.9999999977
0.784534534534534 	299.999999999996 	1.442754615613515e-12 	101324.9999999976
0.7870370370370364 	299.9999999999951 	9.038890189096076e-13 	101324.9999999976
0.7895395395395389 	299.9999999999932 	1.069381174938934e-12 	101324.9999999978
0.7920420420420413 	299.9999999999949 	9.491762779248584e-13 	101324.9999999977
0.794544544544544 	299.999999999999 	1.480755650038082e-12 	101324.9999999976
0.7970470470470463 	300.0000000000017 	1.198507800766655e-12 	101324.9999999975
0.799549549549549 	299.999999999997 	1.471215417262554e-12 	101324.9999999976
0.8020520520520515 	299.9999999999973 	1.016261318323536e-12 	101324.9999999976
0.8045545545545539 	299.9999999999887 	2.980000036588873e-13 	101324.9999999976
0.8070570570570563 	299.9999999999985 	1.055957665339972e-13 	101324.9999999975
0.8095595595595589 	299.9999999999919 	2.224900627423865e-13 	101324.9999999976
0.8120620620620614 	299.9999999999849 	4.960760830524118e-13 	101324.9999999974
0.8145645645645638 	299.9999999999959 	7.318289997068427e-13 	101324.9999999974
0.8170670670670666 	299.9999999999965 	1.115751900703176e-12 	101324.9999999976
0.8195695695695689 	299.9999999999948 	1.431129967173955e-12 	101324.9999999978
0.8220720720720714 	299.9999999999876 	1.03278063583893e-12 	101324.9999999979
0.8245745745745739 	299.9999999999986 	5.288282200281577e-13 	101324.9999999978
0.8270770770770765 	299.9999999999934 	9.33838608306038e-13 	101324.9999999979
0.8295795795795788 	299.9999999999898 	4.683670846897947e-13 	101324.9999999979
0.8320820820820815 	300.0000000000042 	6.576371141890115e-13 	101324.9999999978
0.834584584584584 	300.0000000000014 	6.641208979271845e-13 	101324.9999999976
0.8370870870870865 	299.9999999999927 	6.087422711701406e-13 	101324.9999999977
0.8395895895895891 	299.9999999999831 	5.659240043869363e-13 	101324.9999999979
0.8420920920920915 	299.9999999999848 	2.100719843354968e-13 	101324.999999998
0.844594594594594 	299.9999999999845 	2.047426235757481e-13 	101324.9999999981
0.8470970970970964 	299.9999999999881 	3.175479983865807e-13 	101324.9999999982
0.8495995995995991 	299.9999999999963 	2.679015528200721e-13 	101324.9999999981
0.8521021021021015 	299.9999999999951 	3.939379629744491e-13 	101324.9999999979
0.8546046046046039 	299.9999999999941 	5.650404305176107e-13 	101324.9999999979
0.8571071071071066 	299.9999999999978 	9.793733902398367e-13 	101324.9999999981
0.8596096096096089 	299.99999999999 	1.55131635916273e-12 	101324.9999999982
0.8621121121121116 	299.9999999999845 	8.49213103002939e-13 	101324.999999998
0.8646146146146139 	299.9999999999968 	6.211824580245405e-13 	101324.9999999977
0.8671171171171166 	299.999999999994 	2.450061386884446e-13 	101324.9999999976
0.8696196196196189 	299.9999999999896 	3.335925310346046e-13 	101324.9999999977
0.8721221221221216 	299.9999999999901 	6.776423166869423e-13 	101324.9999999977
0.874624624624624 	299.9999999999979 	6.626706735999252e-13 	101324.9999999977
0.8771271271271264 	300.0000000000022 	6.858713642070253e-13 	101324.9999999976
0.879629629629629 	300.0000000000001 	1.17631708007753e-12 	101324.9999999976
0.8821321321321317 	299.9999999999966 	1.119587285047311e-12 	101324.9999999978
0.8846346346346339 	299.9999999999865 	1.36369151620087e-12 	101324.9999999978
0.8871371371371364 	299.9999999999918 	4.12396863168142e-13 	101324.9999999978
0.8896396396396391 	299.9999999999898 	5.843508753611429e-13 	101324.9999999978
0.8921421421421414 	299.9999999999905 	4.64298407747306e-13 	101324.9999999979
0.8946446446446441 	299.9999999999989 	1.003137219479729e-12 	101324.9999999981
0.8971471471471464 	299.9999999999997 	1.019694704850643e-12 	101324.9999999982
0.8996496496496489 	299.9999999999934 	6.372965060804858e-13 	101324.9999999981
0.9021521521521517 	299.9999999999898 	1.090165512953819e-12 	101324.9999999979
0.9046546546546541 	299.9999999999954 	8.36988518326992e-13 	101324.9999999979
0.9071571571571564 	299.9999999999873 	1.080989521470085e-12 	101324.9999999978
0.9096596596596589 	299.9999999999883 	1.131802962311608e-12 	101324.9999999977
0.9121621621621616 	300.0000000000011 	1.113632173770321e-12 	101324.9999999978
0.9146646646646639 	299.9999999999952 	6.878687421497914e-13 	101324.9999999979
0.9171671671671666 	299.9999999999885 	7.294075171070062e-13 	101324.999999998
0.9196696696696689 	299.9999999999984 	1.450666932542939e-12 	101324.9999999979
0.9221721721721714 	299.9999999999999 	1.382096292356159e-12 	101324.999999998
0.9246746746746741 	299.9999999999882 	9.039081873167043e-13 	101324.9999999983
0.9271771771771765 	299.9999999999865 	9.851104369620441e-13 	101324.9999999983
0.9296796796796791 	299.9999999999969 	5.517700441383922e-13 	101324.9999999983
0.9321821821821816 	299.999999999997 	4.617593138177234e-13 	101324.9999999982
0.9346846846846838 	299.999999999992 	6.954494994994584e-13 	101324.9999999982
0.9371871871871866 	300.0000000000016 	6.887643449865032e-13 	101324.9999999981
0.9396896896896891 	300.0000000000034 	6.549288387127874e-13 	101324.9999999981
0.9421921921921914 	300.0000000000016 	1.138733448237678e-12 	101324.9999999982
0.9446946946946939 	299.9999999999923 	1.215408901794647e-12 	101324.9999999982
0.9471971971971965 	299.9999999999842 	9.623134549500905e-13 	101324.9999999982
0.9496996996996991 	299.9999999999878 	5.773155230729818e-13 	101324.9999999982
0.9522022022022016 	299.9999999999907 	9.760522837415334e-13 	101324.9999999982
0.9547047047047038 	299.9999999999938 	4.942748640999002e-13 	101324.9999999982
0.9572072072072064 	299.9999999999934 	6.824809985261995e-13 	101324.9999999983
0.9597097097097093 	299.9999999999928 	8.15640486861752e-13 	101324.9999999983
0.9622122122122114 	299.9999999999903 	9.219633990093113e-13 	101324.9999999981
0.964714714714714 	299.9999999999914 	1.221135620172516e-12 	101324.999999998
0.9672172172172167 	299.9999999999925 	6.401894375871084e-13 	101324.999999998
0.969719719719719 	299.9999999999973 	7.316393359845558e-13 	101324.999999998
0.9722222222222214 	299.9999999999935 	3.77600702412254e-13 	101324.9999999979
0.9747247247247239 	299.9999999999916 	5.23980486630722e-13 	101324.999999998
0.9772272272272267 	299.9999999999977 	7.704545717828807e-13 	101324.999999998
0.9797297297297292 	299.9999999999955 	1.155812039671034e-12 	101324.9999999979
0.9822322322322313 	299.9999999999983 	1.207429777186746e-12 	101324.9999999979
0.9847347347347344 	299.9999999999991 	1.542532282970287e-12 	101324.999999998
0.9872372372372363 	299.9999999999907 	1.096750735549569e-12 	101324.9999999981
0.9897397397397389 	299.9999999999957 	5.352467623168899e-13 	101324.9999999982
0.9922422422422417 	299.9999999999899 	6.473121240940595e-13 	101324.9999999981
0.9947447447447441 	299.9999999999877 	5.348276568710853e-13 	101324.9999999983
0.9972472472472468 	299.9999999999932 	9.798317321802188e-13 	101324.9999999983
0.999749749749749 	299.9999999999919 	1.177634129726925e-12 	101324.9999999981
1.002252252252252 	299.9999999999932 	1.356064097263132e-12 	101324.9999999982
1.004754754754754 	299.9999999999953 	1.27682020192486e-12 	101324.9999999983
1.007257257257256 	299.9999999999906 	9.911041570626862e-13 	101324.9999999984
1.009759759759759 	299.9999999999879 	1.280984739028875e-12 	101324.9999999984
1.012262262262261 	299.9999999999872 	4.972002251795084e-13 	101324.9999999984
1.014764764764764 	299.9999999999832 	1.051710706396148e-12 	101324.9999999984
1.017267267267267 	299.9999999999804 	7.504524607597128e-13 	101324.9999999983
1.019769769769769 	299.9999999999904 	8.071390725034239e-13 	101324.999999998
1.022272272272272 	299.9999999999935 	6.279119810046747e-13 	101324.9999999978
1.024774774774774 	299.9999999999917 	4.697796677535214e-13 	101324.9999999978
1.027277277277277 	299.9999999999918 	7.068323707820498e-13 	101324.9999999978
1.029779779779779 	299.9999999999964 	9.686589312470686e-14 	101324.9999999979
1.032282282282282 	299.9999999999956 	3.477209043809504e-13 	101324.9999999977
1.034784784784784 	299.9999999999948 	1.710841457201744e-12 	101324.9999999972
1.037287287287286 	299.9999999999883 	4.949918149766671e-12 	101324.999999996
1.039789789789789 	299.9999999999876 	1.55244403051744e-11 	101324.999999992
1.042292292292291 	299.9999999999864 	4.867136332998679e-11 	101324.9999999797
1.044794794794794 	299.9999999999562 	1.473865712252777e-10 	101324.9999999426
1.047297297297296 	299.9999999998658 	4.348555230489458e-10 	101324.9999998345
1.049799799799799 	299.9999999995949 	1.253295168452901e-09 	101324.9999995244
1.052302302302302 	299.9999999988531 	3.549322354898297e-09 	101324.9999986527
1.054804804804804 	299.9999999968151 	9.873236046151061e-09 	101324.9999962459
1.057307307307306 	299.9999999912932 	2.697752100217745e-08 	101324.9999897225
1.059809809809809 	299.9999999766238 	7.236034187859643e-08 	101324.9999723733
1.062312312312312 	299.999999938352 	1.904349933093071e-07 	101324.9999271264
1.064814814814814 	299.9999998405386 	4.914754628673985e-07 	101324.9998114812
1.067317317317317 	299.9999995956967 	1.243113357055811e-06 	101324.9995220117
1.069819819819819 	299.9999989959285 	3.079625428150105e-06 	101324.9988129177
1.072322322322321 	299.9999975592268 	7.467365210071444e-06 	101324.9971143152
1.074824824824824 	299.9999941965989 	1.770925977913829e-05 	101324.9931387481
1.077327327327327 	299.9999865140496 	4.10442603172171e-05 	101324.9840558628
1.079829829829829 	299.9999693978612 	9.288596038219904e-05 	101324.9638198854
1.082332332332332 	299.9999322532593 	0.000205062706099772 	101324.9199050364
1.084834834834834 	299.9998538332916 	0.0004411815938248721 	101324.8271919744
1.087337337337337 	299.9996929952687 	0.0009239595366829841 	101324.637039795
1.089839839839839 	299.9993730400906 	0.001881275274667013 	101324.2587717731
1.092342342342342 	299.9987568213775 	0.003718891735327037 	101323.5302501131
1.094844844844844 	299.9976102340577 	0.007126266672188976 	101322.1747162561
1.097347347347347 	299.995554218865 	0.01321407326903777 	101319.7440648095
1.099849849849849 	299.9920117805822 	0.02366305921495838 	101315.5562491571
1.102352352352352 	299.9861684528407 	0.04082894201301016 	101308.6486420262
1.104854854854854 	299.9769824932001 	0.06769678161729011 	101297.7902926997
1.107357357357357 	299.9633012860018 	0.1075218863206792 	101281.6198765977
1.109859859859859 	299.9441524042084 	0.1629640071981913 	101258.9901595372
1.112362362362362 	299.9192624896751 	0.2345721137980837 	101229.5813961111
1.114864864864865 	299.8897897745993 	0.3187313747644541 	101194.7660290289
1.117367367367367 	299.8590101417728 	0.4060461252414947 	101158.4164687256
1.119869869869869 	299.8320942580398 	0.4822845661870697 	101126.6381443711
1.122372372372372 	299.8143091432372 	0.5331276367140461 	101105.6446594148
1.124874874874874 	299.8085258594256 	0.5507365052764804 	101098.8172241914
1.127377377377377 	299.8135482273506 	0.538396556440222 	101104.7448771064
1.129879879879879 	299.8241345395132 	0.5105076935036444 	101117.2439736219
1.132382382382382 	299.8330628880685 	0.4865032945628454 	101127.7847582178
1.134884884884884 	299.8352157128045 	0.4799038120934757 	101130.3273120236
1.137387387387387 	299.8311017615345 	0.4896979396379161 	101125.4703624681
1.139889889889889 	299.8259681990342 	0.5026222289925137 	101119.408162309
1.142392392392392 	299.8248801398115 	0.5057755469042065 	101118.1227458761
1.144894894894894 	299.8280259698105 	0.4984077577528107 	101121.8365513737
1.147397397397397 	299.8311002832207 	0.4908137650022472 	101125.4674261045
1.149899899899899 	299.8307394268014 	0.4912101353143705 	101125.0418838157
1.152402402402402 	299.8284475967552 	0.496354031280016 	101122.3357648004
1.154904904904904 	299.827920822339 	0.4977339865691033 	101121.7126380334
1.157407407407407 	299.8296116350692 	0.4940504019000647 	101123.708709651
1.159909909909909 	299.8306142900483 	0.4916184996041346 	101124.8935354592
1.162412412412412 	299.8297387206704 	0.4932465603349595 	101123.8599187996
1.164914914914914 	299.8291236680343 	0.494553010988196 	101123.1328655767
1.167417417417417 	299.829950288802 	0.492897220270796 	101124.1086450731
1.169919919919919 	299.8305325518722 	0.4915494511632683 	101124.7967855377
1.172422422422422 	299.8300589242656 	0.4922890667235366 	101124.237501147
1.174924924924925 	299.8299766387551 	0.4924296345486622 	101124.1396906228
1.177427427427427 	299.8305617124556 	0.4912804276656839 	101124.8304088857
1.179929929929929 	299.830609845131 	0.4910070272299999 	101124.8876142609
1.182432432432432 	299.8304049517608 	0.4912610083835772 	101124.6454540872
1.184934934934934 	299.8307249106261 	0.4906557210567897 	101125.0229376198
1.187437437437437 	299.8309125398113 	0.4901895251730296 	101125.2445745244
1.189939939939939 	299.8308038581451 	0.4902287717167727 	101125.1161714384
1.192442442442442 	299.8310089065545 	0.4898249266170415 	101125.3582960005
1.194944944944944 	299.8311729727089 	0.4894288799383741 	101125.5519866209
1.197447447447447 	299.8311465298282 	0.489329661758079 	101125.5203855066
1.199949949949949 	299.831324535525 	0.4889738786405375 	101125.7302616706
1.202452452452452 	299.8314335316444 	0.4886720103284412 	101125.8590873096
1.204954954954955 	299.8314709298238 	0.4884893470246138 	101125.9032602107
1.207457457457457 	299.8316310814083 	0.488161255453046 	101126.0921997118
1.20995995995996 	299.8317007570732 	0.4879215301460177 	101126.1742374392
1.212462462462462 	299.8317945698101 	0.4876825641400343 	101126.2847374479
1.214964964964964 	299.8319158652499 	0.487403069796408 	101126.4276756423
1.217467467467467 	299.8319890786732 	0.4871774084836762 	101126.5139315974
1.219969969969969 	299.8321042102845 	0.4869267488835661 	101126.6499192635
1.222472472472472 	299.8321937692701 	0.4866813728596155 	101126.7554789963
1.224974974974975 	299.8322932673141 	0.4864752451040502 	101126.8726599982
1.227477477477477 	299.8323933315273 	0.4861864221617163 	101126.9904176112
1.229979979979979 	299.8324883438387 	0.4861255971716407 	101127.1022320727
1.232482482482482 	299.8325896152792 	0.4853802766543375 	101127.2210197634
1.234984984984984 	299.8326885374306 	0.486501016972216 	101127.338373725
1.237487487487487 	299.8327831138381 	0.4819581145668402 	101127.4464312692
1.239989989989989 	299.8328828494668 	0.4875842546194051 	101127.5691461873
1.242492492492492 	299.8330026909505 	0.4815753190976751 	101127.6988511198
1.244994994994994 	299.8329135536882 	0.4789924884954244 	101127.7478973294
1.247497497497497 	299.6263837416993 	0.4893424716930521 	101127.9073377313
1.249999999999999 	304.9142437819501 	0.4833695511992332 	101128.0247200808
