-1.25 	300 	0.05903279925964536 	101349.0876837051
-1.247497497497497 	300.0198867227984 	0.06006450723673959 	101349.6823680077
-1.244994994994995 	300.0213579209527 	0.06195515237345255 	101350.2670669613
-1.242492492492492 	300.0218648240306 	0.06339944527035243 	101350.8502638005
-1.23998998998999 	300.0223533210019 	0.06471683059757408 	101351.4286578907
-1.237487487487487 	300.0228382846891 	0.06613989509184341 	101352.0021095065
-1.234984984984985 	300.0233190693223 	0.06752853379999146 	101352.5706015457
-1.232482482482482 	300.0237955555051 	0.06891093990053151 	101353.1340131123
-1.22997997997998 	300.0242676575617 	0.07027844037060037 	101353.6922429015
-1.227477477477477 	300.0247352876897 	0.07163382717009679 	101354.2451870637
-1.224974974974975 	300.0251983603765 	0.0729755907908519 	101354.7927443441
-1.222472472472472 	300.0256567902772 	0.07430403300644318 	101355.3348138927
-1.21996996996997 	300.0261104930855 	0.07561867711916673 	101355.8712959356
-1.217467467467467 	300.0265593853575 	0.07691938900036056 	101356.4020916046
-1.214964964964965 	300.0270033844523 	0.07820588990686546 	101356.9271032336
-1.212462462462462 	300.0274424088474 	0.07947796658314782 	101357.4462343586
-1.20995995995996 	300.0278763779947 	0.08073537714806327 	101357.9593897056
-1.207457457457457 	300.0283052123663 	0.08197789534090799 	101358.466475069
-1.204954954954955 	300.0287288332933 	0.08320529238187116 	101358.9673973716
-1.202452452452452 	300.0291471629054 	0.08441734746161415 	101359.4620645789
-1.19994994994995 	300.0295601245967 	0.08561384069548753 	101359.9503858947
-1.197447447447447 	300.0299676424597 	0.0867945524711152 	101360.4322716672
-1.194944944944945 	300.030369641882 	0.08795926518900411 	101360.9076335334
-1.192442442442442 	300.0307660492735 	0.08910776719193722 	101361.3763842669
-1.18993993993994 	300.0311567917875 	0.09023985130433554 	101361.8384378246
-1.187437437437437 	300.0315417978175 	0.09135530987550206 	101362.2937093914
-1.184934934934935 	300.0319209967785 	0.0924539365400469 	101362.7421153823
-1.182432432432432 	300.0322943192217 	0.09353553109989581 	101363.1835735241
-1.17992992992993 	300.0326616964601 	0.09459989844445299 	101363.6180028435
-1.177427427427427 	300.0330230607181 	0.09564684330812583 	101364.0453236678
-1.174924924924925 	300.0333783461971 	0.096676171591885 	101364.4654574673
-1.172422422422422 	300.0337274889203 	0.09768769572688915 	101364.8783272312
-1.16991991991992 	300.0340704247862 	0.09868123289580408 	101365.2838570873
-1.167417417417417 	300.0344070890773 	0.09965660048449326 	101365.6819726761
-1.164914914914915 	300.0347374183322 	0.1006136182226565 	101366.072600978
-1.162412412412412 	300.0350613533478 	0.10155211201868 	101366.4556703477
-1.15990990990991 	300.0353788382522 	0.1024719114835838 	101366.8311105763
-1.157407407407407 	300.0356898164466 	0.1033728466014393 	101367.1988524676
-1.154904904904904 	300.0359942285911 	0.1042547515377788 	101367.5588285942
-1.152402402402403 	300.0362920144328 	0.1051174667227593 	101367.9109729513
-1.1498998998999 	300.0365831172716 	0.1059608347420021 	101368.2552212009
-1.147397397397397 	300.0368674850959 	0.1067846991549061 	101368.5915100218
-1.144894894894895 	300.0371450698296 	0.107588909124681 	101368.9197773935
-1.142392392392392 	300.0374158246937 	0.1083733189861365 	101369.2399631064
-1.13988988988989 	300.0376797014932 	0.1091377841036475 	101369.552008239
-1.137387387387387 	300.0379366511478 	0.1098821642964774 	101369.8558562043
-1.134884884884885 	300.0381866238 	0.1106063244775706 	101370.1514512815
-1.132382382382382 	300.0384295709614 	0.1113101315714119 	101370.438738879
-1.12987987987988 	300.0386654461522 	0.1119934548051131 	101370.7176659354
-1.127377377377377 	300.0388942050646 	0.1126561690026428 	101370.988180731
-1.124874874874875 	300.0391158062725 	0.1132981540978261 	101371.2502341434
-1.122372372372372 	300.0393302092669 	0.1139192909290624 	101371.5037778319
-1.11986986986987 	300.0395373756401 	0.1145194663591947 	101371.7487656389
-1.117367367367367 	300.0397372684374 	0.1150985734494021 	101371.9851533865
-1.114864864864865 	300.0399298510814 	0.1156565057231041 	101372.2128973438
-1.112362362362362 	300.0401150888634 	0.1161931601029795 	101372.4319560954
-1.10985985985986 	300.0402929472717 	0.1167084379296534 	101372.6422887104
-1.107357357357357 	300.0404633939327 	0.1172022446373628 	101372.8438565784
-1.104854854854855 	300.04062639809 	0.1176744892256091 	101373.0366233469
-1.102352352352353 	300.0407819286931 	0.118125084457866 	101373.2205522149
-1.09984984984985 	300.0409299574839 	0.1185539487240728 	101373.395609563
-1.097347347347347 	300.0410704569595 	0.1189610019458127 	101373.5617629985
-1.094844844844845 	300.0412034013345 	0.1193461687152068 	101373.7189819635
-1.092342342342342 	300.041328767865 	0.119709379913049 	101373.8672394927
-1.08983983983984 	300.0414465322086 	0.1200505663288132 	101374.0065067335
-1.087337337337337 	300.0415566717998 	0.1203696661116698 	101374.1367570449
-1.084834834834835 	300.0416591665136 	0.1206666238934135 	101374.257966597
-1.082332332332332 	300.0417539963307 	0.1209413828860653 	101374.3701115484
-1.07982982982983 	300.0418411461654 	0.1211938922424013 	101374.4731742133
-1.077327327327327 	300.0419206013711 	0.1214241042933895 	101374.5671372305
-1.074824824824825 	300.0419923457266 	0.1216319735337899 	101374.6519813532
-1.072322322322323 	300.0420563667359 	0.1218174648578625 	101374.7276917997
-1.06981981981982 	300.0421126498248 	0.1219805456790628 	101374.7942512678
-1.067317317317317 	300.0421611820647 	0.1221211869074656 	101374.8516446284
-1.064814814814815 	300.0422019576513 	0.1222393660580824 	101374.8998648024
-1.062312312312312 	300.0422349684263 	0.1223350566023448 	101374.9389021707
-1.05980980980981 	300.0422602095723 	0.122408236585013 	101374.9687511779
-1.057307307307307 	300.0422776813518 	0.1224588921240505 	101374.9894119527
-1.054804804804805 	300.0422873779987 	0.1224870078049268 	101375.0008776376
-1.052302302302302 	300.0422892976728 	0.1224925793172123 	101375.0031456618
-1.0497997997998 	300.0422834405798 	0.1224756097636579 	101374.9962172893
-1.047297297297297 	300.042269801648 	0.1224360976833942 	101374.9800865732
-1.044794794794795 	300.0422483843125 	0.1223740559083072 	101374.9547565507
-1.042292292292292 	300.0422191960088 	0.1222895041187083 	101374.9202363972
-1.03978978978979 	300.0421822359025 	0.1221824500648887 	101374.8765255762
-1.037287287287287 	300.04213751119 	0.1220529135946667 	101374.8236319642
-1.034784784784785 	300.042085036145 	0.1219009258073965 	101374.7615722064
-1.032282282282283 	300.0420248145737 	0.1217265057600835 	101374.6903516704
-1.02977977977978 	300.0419568561277 	0.1215296839748749 	101374.609982217
-1.027277277277277 	300.0418811815445 	0.1213105064149716 	101374.5204872708
-1.024774774774775 	300.0417978003896 	0.1210690039076177 	101374.4218773891
-1.022272272272272 	300.0417067220717 	0.1208052128405102 	101374.3141651497
-1.01976976976977 	300.0416079698679 	0.1205191924574953 	101374.1973794194
-1.017267267267267 	300.0415015611784 	0.120210990614058 	101374.0715391797
-1.014764764764765 	300.0413875097241 	0.1198806511109452 	101373.9366584172
-1.012262262262262 	300.0412658420029 	0.1195282455449281 	101373.792769857
-1.00975975975976 	300.0411365812784 	0.1191538454992021 	101373.6399046354
-1.007257257257257 	300.0409997426924 	0.1187575046253964 	101373.4780805375
-1.004754754754755 	300.0408553557133 	0.1183392956147789 	101373.3073276784
-1.002252252252252 	300.0407034574504 	0.1178993111180147 	101373.1276874479
-0.9997497497497498 	300.0405440687147 	0.1174376260140347 	101372.939189012
-0.9972472472472473 	300.0403772052094 	0.116954308089723 	101372.7418572925
-0.9947447447447449 	300.0402029028423 	0.1164494548901929 	101372.5357335025
-0.9922422422422421 	300.0400212098726 	0.115923176646795 	101372.3208659445
-0.9897397397397399 	300.0398321576967 	0.1153755542707903 	101372.0972865479
-0.9872372372372376 	300.0396357628258 	0.1148066637464683 	101371.8650210774
-0.9847347347347346 	300.0394320616437 	0.11421663319444 	101371.6241240724
-0.9822322322322323 	300.0392211065092 	0.1136056013634637 	101371.3746605756
-0.9797297297297296 	300.039002925196 	0.1129736367806548 	101371.1166531613
-0.9772272272272275 	300.0387775457958 	0.1123208162346903 	101370.8501217437
-0.9747247247247248 	300.0385450457658 	0.1116473320719265 	101370.5751562725
-0.9722222222222224 	300.0383054829718 	0.1109533495084062 	101370.2918381503
-0.9697197197197196 	300.0380588309164 	0.1102388778111743 	101370.0001514124
-0.9672172172172175 	300.0378051057041 	0.1095040079958012 	101369.7001180209
-0.9647147147147147 	300.0375444516157 	0.1087490506646989 	101369.3918954768
-0.9622122122122124 	300.0372769543376 	0.1079741714156283 	101369.0755671347
-0.9597097097097099 	300.0370025442883 	0.1071792593527064 	101368.7510436831
-0.9572072072072073 	300.0367212469095 	0.1063644511919609 	101368.4183653678
-0.9547047047047047 	300.0364332699889 	0.1055302467829141 	101368.077796884
-0.9522022022022023 	300.036138664608 	0.104676788154397 	101367.7294123336
-0.9496996996996998 	300.0358372531719 	0.1038037542562859 	101367.3730003149
-0.9471971971971973 	300.0355290945161 	0.1029113250133431 	101367.0086154704
-0.9446946946946947 	300.0352145708178 	0.1020003070616212 	101366.6366910541
-0.9421921921921923 	300.0348937723159 	0.101070867892919 	101366.2573230293
-0.93968968968969 	300.0345663472768 	0.1001223187258178 	101365.8700993948
-0.9371871871871872 	300.0342322733807 	0.09915474722694315 	101365.4750090675
-0.9346846846846848 	300.033892121651 	0.09816945773322419 	101365.0727444918
-0.9321821821821823 	300.0335461163345 	0.09716692124967345 	101364.6635814401
-0.9296796796796799 	300.0331936690435 	0.09614589129460362 	101364.2468252185
-0.9271771771771771 	300.0328344896599 	0.09510586126500448 	101363.8221252998
-0.9246746746746748 	300.0324694098648 	0.09404872340905185 	101363.390451796
-0.9221721721721724 	300.0320991846513 	0.09297605760972652 	101362.9526826891
-0.9196696696696698 	300.031723125413 	0.09188627107102859 	101362.507993548
-0.9171671671671672 	300.0313401701694 	0.09077713272686781 	101362.0551266824
-0.9146646646646649 	300.0309509434676 	0.08965025073438306 	101361.5948253177
-0.9121621621621623 	300.030557193791 	0.08850957562353765 	101361.129163649
-0.9096596596596597 	300.0301590216905 	0.08735518042114934 	101360.6582664786
-0.9071571571571573 	300.0297543628617 	0.08618237048193994 	101360.1796988281
-0.9046546546546547 	300.0293421476575 	0.0849889828707719 	101359.6922023824
-0.9021521521521524 	300.0289245265063 	0.08378021132402504 	101359.1983242019
-0.8996496496496498 	300.028504223851 	0.08256224935967621 	101358.7012855211
-0.8971471471471473 	300.0280803417604 	0.08133272373754744 	101358.2000220757
-0.894644644644645 	300.0276490167288 	0.08008260550836359 	101357.6899649219
-0.892142142142142 	300.0272088477444 	0.0788089969222715 	101357.1694594909
-0.8896396396396397 	300.0267637220134 	0.07752141940096399 	101356.6431031472
-0.8871371371371374 	300.0263183759865 	0.07623098420738975 	101356.1164931801
-0.8846346346346349 	300.025871875519 	0.07493503384114623 	101355.5885197211
-0.8821321321321324 	300.0254178593594 	0.07361816808657259 	101355.0516595239
-0.8796296296296297 	300.0249522442994 	0.07227094575402818 	101354.5010883738
-0.8771271271271271 	300.0244791911373 	0.07090398419662253 	101353.9417303652
-0.8746246246246248 	300.0240073439387 	0.06953841206600876 	101353.3838051245
-0.8721221221221224 	300.0235398686767 	0.06818153477733491 	101352.8310498027
-0.8696196196196196 	300.0230698066678 	0.06681579852922453 	101352.2752315741
-0.8671171171171175 	300.0225868443855 	0.06541581040472376 	101351.7041581069
-0.8646146146146148 	300.0220887845274 	0.06397669045650452 	101351.1152391976
-0.8621121121121121 	300.0215852271735 	0.06252286717245413 	101350.5198309236
-0.8596096096096097 	300.021088775022 	0.06108586814743742 	101349.9328313003
-0.857107107107107 	300.0206022257981 	0.05967225991969153 	101349.3575393394
-0.8546046046046049 	300.0201147161213 	0.05825416063243043 	101348.781104112
-0.8521021021021022 	300.0196111169961 	0.05679321465082411 	101348.1856405679
-0.8495995995995997 	300.0190862110761 	0.05527661459154797 	101347.5649900335
-0.8470970970970974 	300.0185505479952 	0.0537318453615805 	101346.9316344133
-0.8445945945945946 	300.0180223295141 	0.0522057896456115 	101346.307093782
-0.8420920920920922 	300.017512178337 	0.05072560383328494 	101345.7039181853
-0.8395895895895897 	300.0170137696604 	0.04927452674622799 	101345.1146187689
-0.8370870870870872 	300.0165080271547 	0.04780272869822698 	101344.5166374066
-0.8345845845845846 	300.0159774510266 	0.04626465637896184 	101343.889290487
-0.8320820820820823 	300.0154195654183 	0.04465419185145521 	101343.2296632486
-0.8295795795795798 	300.0148495295567 	0.04301149240399123 	101342.5556877819
-0.8270770770770772 	300.0142901517324 	0.04139683323658571 	101341.8943299305
-0.8245745745745746 	300.0137566187768 	0.03985039079090606 	101341.2635354017
-0.8220720720720721 	300.0132464562592 	0.03836545881865042 	101340.6603659351
-0.8195695695695699 	300.0127408273328 	0.03689158595672863 	101340.0625432168
-0.817067067067067 	300.0122155848207 	0.03536398821954517 	101339.4415200843
-0.8145645645645651 	300.0116550718943 	0.03374067201150929 	101338.7787956441
-0.8120620620620621 	300.0110609445117 	0.03202629401831815 	101338.0763404552
-0.8095595595595597 	300.0104515821576 	0.03027069080222985 	101337.3558931061
-0.8070570570570572 	300.0098529128504 	0.02854428865039412 	101336.6481081651
-0.8045545545545546 	300.0092859500628 	0.02690443744407474 	101335.9778214565
-0.8020520520520523 	300.0087574072439 	0.02536962790958781 	101335.3529582302
-0.7995495495495494 	300.0082571777858 	0.02391219206119959 	101334.761559154
-0.7970470470470474 	300.0077627455626 	0.02246997779191009 	101334.1769987054
-0.7945445445445446 	300.0072476659238 	0.02096961182774381 	101333.5680133784
-0.7920420420420423 	300.0066904962343 	0.01935142452966953 	101332.9092592569
-0.7895395395395397 	300.0060813893267 	0.01758801388926062 	101332.1891046724
-0.7870370370370371 	300.005424829458 	0.01569200975161487 	101331.4128616266
-0.7845345345345348 	300.0047382443719 	0.0137122629489365 	101330.6011419222
-0.7820320320320323 	300.0040473306807 	0.01172087770577565 	101329.7843285283
-0.7795295295295296 	300.0033797827021 	0.009795981314978823 	101328.9951613967
-0.7770270270270272 	300.0027597089662 	0.008006312726190973 	101328.2621375387
-0.7745245245245247 	300.0022044649481 	0.006401916906736639 	101327.6057687995
-0.7720220220220222 	300.0017237906143 	0.005011257191800701 	101327.0375636889
-0.7695195195195199 	300.0013204257672 	0.00384275268750257 	101326.5607559309
-0.767017017017017 	300.0009915350413 	0.002888742590439166 	101326.1719894258
-0.7645145145145147 	300.0007304325734 	0.002130374425358483 	101325.8633575013
-0.7620120120120122 	300.0005282424559 	0.001542355560723181 	101325.6243656889
-0.7595095095095097 	300.0003752810027 	0.001096937700646104 	101325.4435655514
-0.7570070070070072 	300.0002620736308 	0.0007668676615899784 	101325.3097563554
-0.7545045045045048 	300.0001800074744 	0.0005272979540768908 	101325.2127566825
-0.7520020020020022 	300.0001216743209 	0.0003568037135588107 	101325.1438095376
-0.7494994994994997 	300.0000809793554 	0.0002377199153700031 	101325.095710431
-0.7469969969969972 	300.0000530918721 	0.0001560183398677585 	101325.0627493364
-0.7444944944944945 	300.0000343050014 	0.0001009153615101948 	101325.0405447869
-0.7419919919919924 	300.0000218548691 	6.435698148393673e-05 	101325.0258298697
-0.7394894894894897 	300.0000137332401 	4.048225089769079e-05 	101325.0162309715
-0.7369869869869872 	300.0000085152558 	2.512623897769768e-05 	101325.0100638736
-0.7344844844844846 	300.0000052116042 	1.539351379043317e-05 	101325.0061593898
-0.7319819819819822 	300.0000031495406 	9.311940784034285e-06 	101325.0037222595
-0.7294794794794797 	300.0000018799723 	5.563795304561434e-06 	101325.002221818
-0.7269769769769773 	300.0000011087243 	3.284428763360485e-06 	101325.0013103035
-0.7244744744744747 	300.0000006462194 	1.916143258504902e-06 	101325.0007636928
-0.721971971971972 	300.0000003722891 	1.105074120128801e-06 	101325.0004400114
-0.7194694694694695 	300.0000002121041 	6.301725156152909e-07 	101325.0002506783
-0.7169669669669674 	300.0000001194726 	3.554156044210971e-07 	101325.0001412471
-0.7144644644644647 	300.0000000666084 	1.983000305547467e-07 	101325.0000787321
-0.711961961961962 	300.0000000367584 	1.094746257101542e-07 	101325.0000434234
-0.7094594594594597 	300.000000020073 	5.981485625854092e-08 	101325.0000237018
-0.7069569569569573 	300.0000000108582 	3.234993875578068e-08 	101325.0000128055
-0.7044544544544545 	300.0000000058242 	1.73232700358619e-08 	101325.0000068488
-0.7019519519519523 	300.0000000030809 	9.185885256861423e-09 	101325.0000036262
-0.6994494494494495 	300.0000000015564 	4.825182714931728e-09 	101325.0000019004
-0.6969469469469471 	300.0000000007943 	2.510102053628025e-09 	101325.0000009853
-0.6944444444444446 	300.0000000004021 	1.29400980253216e-09 	101325.0000005046
-0.6919419419419421 	300.0000000002465 	6.602568416175933e-10 	101325.0000002549
-0.6894394394394396 	300.0000000001089 	3.343225050956787e-10 	101325.0000001261
-0.6869369369369374 	300.0000000000642 	1.667851811742725e-10 	101325.0000000605
-0.6844344344344344 	300.0000000000467 	8.307327140751545e-11 	101325.0000000273
-0.6819319319319321 	299.9999999999822 	4.063370871896664e-11 	101325.0000000106
-0.6794294294294296 	299.9999999999612 	1.936836811432105e-11 	101325.0000000024
-0.6769269269269272 	299.9999999999358 	8.284157655259052e-12 	101324.9999999984
-0.6744244244244245 	299.9999999999762 	3.143347564496249e-12 	101324.9999999963
-0.6719219219219222 	299.9999999999641 	7.573004932363732e-13 	101324.9999999952
-0.6694194194194195 	299.9999999999971 	1.580454371679088e-12 	101324.9999999946
-0.6669169169169172 	300.0000000000137 	1.791579878108036e-12 	101324.9999999945
-0.6644144144144146 	299.9999999999739 	2.857904832861418e-12 	101324.9999999946
-0.661911911911912 	299.9999999999715 	2.568250212719168e-12 	101324.9999999946
-0.6594094094094097 	299.9999999999797 	3.057246702805848e-12 	101324.9999999944
-0.656906906906907 	299.999999999954 	1.599263420578695e-12 	101324.9999999946
-0.6544044044044046 	299.9999999999573 	3.036281008829531e-12 	101324.9999999946
-0.6519019019019021 	299.9999999999873 	1.798551601924373e-12 	101324.9999999946
-0.6493993993993996 	300.0000000000178 	4.429720100914264e-12 	101324.9999999948
-0.6468968968968971 	300.0000000000256 	1.774078095237644e-12 	101324.9999999951
-0.6443943943943946 	299.9999999999967 	3.910407356083599e-12 	101324.9999999951
-0.6418918918918921 	299.9999999999979 	1.593274734239014e-12 	101324.9999999949
-0.6393893893893897 	300.0000000000019 	2.041202106549464e-12 	101324.9999999949
-0.6368868868868871 	299.999999999983 	1.049814665745075e-12 	101324.9999999948
-0.6343843843843846 	299.9999999999917 	1.112322979953399e-12 	101324.9999999946
-0.6318818818818821 	299.9999999999567 	7.495305153559099e-13 	101324.9999999945
-0.6293793793793795 	300.0000000000028 	6.54109161769734e-13 	101324.9999999945
-0.6268768768768773 	300.0000000000158 	9.979522538112711e-13 	101324.9999999947
-0.6243743743743745 	299.9999999999867 	6.135211753657746e-13 	101324.9999999949
-0.6218718718718721 	300.0000000000085 	1.366171424736164e-12 	101324.9999999949
-0.6193693693693696 	299.9999999999482 	8.342762168292405e-13 	101324.9999999949
-0.6168668668668671 	299.9999999999829 	1.532679421115999e-12 	101324.9999999948
-0.6143643643643645 	300.0000000000138 	1.238054619711537e-12 	101324.9999999947
-0.6118618618618621 	299.9999999999912 	7.70386914559321e-13 	101324.9999999946
-0.6093593593593596 	299.9999999999944 	1.327811205693392e-12 	101324.9999999945
-0.6068568568568571 	299.9999999999972 	6.769656338990823e-13 	101324.9999999944
-0.6043543543543546 	299.9999999999667 	1.398520043533297e-12 	101324.9999999944
-0.6018518518518521 	299.9999999999718 	4.199245386606637e-13 	101324.9999999944
-0.5993493493493496 	299.9999999999565 	9.626921739286071e-13 	101324.9999999946
-0.5968468468468471 	299.9999999999633 	1.013877937294743e-12 	101324.9999999947
-0.5943443443443446 	299.9999999999951 	1.591011159177747e-12 	101324.9999999948
-0.591841841841842 	299.999999999965 	1.794874843404919e-12 	101324.9999999947
-0.5893393393393397 	299.999999999957 	1.26789619769282e-12 	101324.9999999948
-0.5868368368368371 	299.9999999999987 	2.938707077365156e-12 	101324.9999999946
-0.5843343343343346 	300.0000000000124 	2.267256042875142e-12 	101324.9999999944
-0.5818318318318321 	300.0000000000229 	2.38296502070071e-12 	101324.9999999945
-0.5793293293293297 	299.9999999999893 	2.273278864929538e-12 	101324.9999999943
-0.5768268268268271 	300.0000000000047 	1.492703944853292e-12 	101324.9999999945
-0.5743243243243245 	300.0000000000161 	1.546592438833506e-12 	101324.9999999944
-0.5718218218218221 	300.000000000018 	6.205998090939058e-13 	101324.9999999942
-0.5693193193193196 	300.0000000000326 	5.096642752174449e-13 	101324.999999994
-0.5668168168168171 	299.9999999999858 	1.191957447052604e-12 	101324.9999999938
-0.5643143143143147 	299.9999999999573 	5.422045089992798e-13 	101324.9999999939
-0.5618118118118121 	300.0000000000114 	1.59442645187259e-12 	101324.9999999939
-0.5593093093093094 	300.0000000000284 	8.42874594461502e-13 	101324.999999994
-0.5568068068068072 	300.0000000000147 	1.981472884684827e-12 	101324.9999999939
-0.5543043043043046 	300.0000000000165 	1.199475920232924e-12 	101324.9999999938
-0.551801801801802 	299.9999999999651 	1.825822819031368e-12 	101324.9999999937
-0.5492992992992995 	299.9999999999953 	8.74774765166774e-13 	101324.9999999937
-0.5467967967967969 	300.0000000000077 	1.222988380413646e-12 	101324.9999999938
-0.5442942942942947 	300.0000000000039 	5.543559064899273e-13 	101324.9999999939
-0.5417917917917919 	299.9999999999677 	1.368263855113365e-12 	101324.9999999938
-0.5392892892892895 	299.9999999999457 	8.180394243016387e-13 	101324.9999999936
-0.536786786786787 	299.9999999999609 	1.688771058791074e-12 	101324.9999999938
-0.5342842842842846 	299.9999999999648 	1.673297661034567e-12 	101324.9999999936
-0.531781781781782 	299.9999999999439 	1.92422129922944e-12 	101324.999999994
-0.5292792792792794 	299.9999999999413 	3.113197920250754e-12 	101324.9999999943
-0.526776776776777 	299.999999999928 	2.136702125266868e-12 	101324.9999999944
-0.5242742742742745 	299.9999999999812 	5.22783827044033e-12 	101324.9999999942
-0.521771771771772 	300.0000000000176 	3.843919310869341e-12 	101324.9999999944
-0.5192692692692695 	299.9999999999703 	5.034565051680768e-12 	101324.9999999944
-0.516766766766767 	300.0000000000015 	4.578018122527091e-12 	101324.9999999942
-0.5142642642642645 	299.999999999983 	4.261465988591711e-12 	101324.9999999942
-0.511761761761762 	299.9999999999648 	3.942596713202545e-12 	101324.999999994
-0.5092592592592596 	299.999999999977 	3.260169301904983e-12 	101324.9999999943
-0.506756756756757 	299.9999999999515 	3.883436209426527e-12 	101324.9999999944
-0.5042542542542544 	299.9999999999924 	1.827972886840521e-12 	101324.9999999948
-0.5017517517517521 	300.000000000023 	3.926735397373527e-12 	101324.9999999949
-0.4992492492492494 	300.000000000026 	1.70221452791219e-12 	101324.9999999947
-0.496746746746747 	299.9999999999906 	3.815739343715569e-12 	101324.9999999945
-0.4942442442442445 	299.9999999999563 	2.036494135716157e-12 	101324.9999999943
-0.4917417417417421 	299.9999999999547 	3.508124889627048e-12 	101324.9999999942
-0.4892392392392395 	299.9999999999643 	1.453788644325551e-12 	101324.999999994
-0.486736736736737 	299.999999999965 	3.247108194401219e-12 	101324.9999999938
-0.4842342342342345 	299.9999999999377 	1.037967425050961e-12 	101324.9999999937
-0.481731731731732 	300.0000000000268 	3.005407309047949e-12 	101324.9999999939
-0.4792292292292296 	300.0000000000168 	8.115595416737569e-13 	101324.9999999941
-0.4767267267267268 	299.9999999999632 	4.272049280105369e-12 	101324.999999994
-0.4742242242242246 	299.9999999999986 	1.574603278592079e-12 	101324.999999994
-0.471721721721722 	299.9999999999649 	3.710352939296067e-12 	101324.999999994
-0.4692192192192195 	299.9999999999787 	8.320870037088441e-13 	101324.9999999941
-0.4667167167167169 	299.9999999999293 	3.616759489005714e-12 	101324.999999994
-0.4642142142142145 	299.9999999999969 	1.422183569570607e-12 	101324.9999999939
-0.461711711711712 	300.0000000000149 	3.370906861654083e-12 	101324.9999999939
-0.4592092092092094 	300.0000000000097 	1.828315894280538e-12 	101324.9999999935
-0.456706706706707 	300.0000000000433 	3.095046418566576e-12 	101324.9999999935
-0.4542042042042045 	299.9999999999527 	2.033613750036715e-12 	101324.9999999933
-0.451701701701702 	299.9999999999618 	3.064415395096573e-12 	101324.9999999935
-0.4491991991991995 	299.9999999999688 	1.603026348134717e-12 	101324.9999999935
-0.4466966966966969 	299.9999999999629 	2.658346540529823e-12 	101324.9999999936
-0.4441941941941945 	299.999999999994 	6.451159144420497e-13 	101324.9999999938
-0.441691691691692 	299.9999999999657 	2.720538153690237e-12 	101324.9999999936
-0.4391891891891895 	299.9999999999877 	1.698885036774603e-12 	101324.9999999937
-0.436686686686687 	299.9999999999731 	4.144634071848477e-12 	101324.9999999937
-0.4341841841841846 	299.9999999999997 	1.918322623094726e-12 	101324.9999999937
-0.431681681681682 	299.9999999999621 	3.662099780914611e-12 	101324.9999999935
-0.4291791791791794 	299.9999999999292 	1.064611436042653e-12 	101324.9999999936
-0.426676676676677 	299.9999999999329 	2.778014595087721e-12 	101324.9999999934
-0.4241741741741744 	299.9999999999734 	8.400539689245642e-13 	101324.9999999934
-0.421671671671672 	300.0000000000003 	2.110527842076602e-12 	101324.9999999933
-0.4191691691691694 	300.0000000000326 	5.724852411397375e-13 	101324.9999999932
-0.4166666666666669 	300.0000000000398 	1.364173866472527e-12 	101324.9999999933
-0.4141641641641645 	299.9999999999496 	5.644501306757455e-13 	101324.9999999937
-0.411661661661662 	300.0000000000034 	1.080778746782184e-12 	101324.9999999938
-0.4091591591591594 	300.0000000000121 	7.629339250422322e-13 	101324.9999999938
-0.406656656656657 	299.9999999999625 	1.521733705752241e-12 	101324.9999999936
-0.4041541541541545 	300.0000000000106 	6.0675761976599e-13 	101324.9999999932
-0.401651651651652 	299.9999999999411 	1.61725653580487e-12 	101324.9999999933
-0.3991491491491494 	300.0000000000028 	2.071150174707169e-12 	101324.9999999931
-0.396646646646647 	299.9999999999636 	2.173747403395389e-12 	101324.9999999928
-0.3941441441441444 	299.99999999998 	2.865512557501655e-12 	101324.999999993
-0.3916416416416419 	299.9999999999418 	2.515754369564658e-12 	101324.999999993
-0.3891391391391395 	299.9999999999632 	1.876933739648465e-12 	101324.999999993
-0.3866366366366368 	299.9999999999658 	2.056465135785323e-12 	101324.9999999931
-0.3841341341341344 	300.0000000000001 	7.581018078601372e-13 	101324.9999999931
-0.381631631631632 	299.9999999999649 	1.797731050420911e-12 	101324.9999999932
-0.3791291291291294 	300.0000000000005 	1.175243357874686e-12 	101324.9999999932
-0.3766266266266269 	300.0000000000142 	1.220065818669607e-12 	101324.999999993
-0.3741241241241244 	300.0000000000154 	2.301859547297991e-12 	101324.9999999929
-0.371621621621622 	300.0000000000146 	1.070382370292994e-12 	101324.999999993
-0.3691191191191194 	300.0000000000002 	3.674291858858581e-12 	101324.9999999932
-0.366616616616617 	300.0000000000044 	9.881734177035961e-13 	101324.999999993
-0.3641141141141143 	299.9999999999826 	3.470252275384091e-12 	101324.9999999931
-0.3616116116116119 	299.9999999999563 	1.788116677942154e-12 	101324.9999999929
-0.3591091091091095 	299.9999999999885 	2.553467105921805e-12 	101324.9999999931
-0.356606606606607 	299.9999999999928 	1.516351276508289e-12 	101324.999999993
-0.3541041041041044 	299.9999999999861 	1.260714994214827e-12 	101324.9999999929
-0.3516016016016019 	300.0000000000058 	2.491408011982388e-12 	101324.9999999928
-0.3490990990990994 	299.9999999999869 	1.418379508664657e-12 	101324.9999999924
-0.346596596596597 	300.0000000000268 	3.606644670039567e-12 	101324.9999999923
-0.3440940940940944 	300.000000000033 	1.825416973417608e-12 	101324.9999999926
-0.3415915915915919 	300.0000000000198 	3.677572067235437e-12 	101324.9999999927
-0.3390890890890895 	299.9999999999865 	1.919500791086836e-12 	101324.9999999927
-0.3365865865865869 	300.0000000000132 	3.28986182341041e-12 	101324.9999999929
-0.3340840840840844 	299.9999999999989 	2.880936852140556e-12 	101324.999999993
-0.3315815815815819 	300.000000000019 	3.549471972025799e-12 	101324.9999999933
-0.3290790790790794 	300.000000000015 	3.056879200827878e-12 	101324.9999999931
-0.3265765765765769 	299.9999999999485 	3.717268046275052e-12 	101324.9999999931
-0.3240740740740744 	300.0000000000005 	2.414992661333567e-12 	101324.9999999932
-0.3215715715715718 	300.0000000000091 	4.171442966213919e-12 	101324.9999999931
-0.3190690690690695 	299.9999999999445 	2.679439463528134e-12 	101324.999999993
-0.3165665665665668 	299.9999999999897 	4.120277524006275e-12 	101324.9999999933
-0.3140640640640644 	299.9999999999983 	2.146137321072927e-12 	101324.999999993
-0.311561561561562 	299.9999999999438 	4.787287774389656e-12 	101324.9999999927
-0.3090590590590593 	299.9999999999931 	1.103681151270994e-12 	101324.9999999927
-0.3065565565565568 	300.0000000000015 	5.596903038990251e-12 	101324.9999999927
-0.3040540540540545 	300.000000000007 	1.31143932326696e-12 	101324.9999999931
-0.3015515515515518 	300.0000000000194 	5.675031391946815e-12 	101324.9999999931
-0.2990490490490494 	299.9999999999548 	2.463368334575916e-12 	101324.9999999932
-0.2965465465465469 	299.9999999999865 	4.172768270680874e-12 	101324.9999999932
-0.2940440440440444 	299.9999999999942 	3.45407206720453e-12 	101324.999999993
-0.2915415415415418 	300.0000000000034 	4.215056409591632e-12 	101324.9999999931
-0.2890390390390395 	300.0000000000022 	4.484647036785492e-12 	101324.9999999931
-0.2865365365365368 	299.9999999999795 	3.856415611512632e-12 	101324.999999993
-0.2840340340340343 	299.9999999999989 	5.116433047605199e-12 	101324.9999999929
-0.2815315315315318 	299.9999999999459 	2.887062564910074e-12 	101324.999999993
-0.2790290290290295 	299.9999999999705 	4.047886749600452e-12 	101324.999999993
-0.2765265265265269 	300.0000000000091 	3.473674978405296e-12 	101324.9999999931
-0.2740240240240244 	300.0000000000239 	4.453489863263522e-12 	101324.999999993
-0.2715215215215219 	300.0000000000089 	4.818695848405733e-12 	101324.999999993
-0.2690190190190194 	299.9999999999534 	3.646043773121874e-12 	101324.9999999931
-0.2665165165165169 	299.9999999999969 	4.485314186046403e-12 	101324.9999999932
-0.2640140140140144 	299.9999999999782 	3.036289736464824e-12 	101324.9999999929
-0.2615115115115119 	299.9999999999988 	5.358430925135036e-12 	101324.9999999931
-0.2590090090090094 	299.9999999999515 	3.836078149194404e-12 	101324.9999999931
-0.2565065065065068 	299.9999999999916 	5.531850815681317e-12 	101324.9999999931
-0.2540040040040044 	299.9999999999962 	5.503146008827548e-12 	101324.9999999931
-0.2515015015015019 	300.0000000000283 	5.394104693185683e-12 	101324.999999993
-0.2489989989989994 	300.000000000031 	6.70275713708935e-12 	101324.999999993
-0.2464964964964968 	299.9999999999919 	4.37364697322678e-12 	101324.999999993
-0.2439939939939944 	299.999999999999 	7.186780252643139e-12 	101324.9999999929
-0.2414914914914919 	299.9999999999767 	3.452760081832212e-12 	101324.9999999929
-0.2389889889889893 	300.000000000001 	7.129266621741437e-12 	101324.9999999932
-0.2364864864864869 	300.0000000000168 	3.593543713510408e-12 	101324.9999999933
-0.2339839839839843 	299.9999999999462 	6.780475087707288e-12 	101324.9999999934
-0.2314814814814819 	299.9999999999833 	2.49636667097903e-12 	101324.9999999933
-0.2289789789789792 	299.9999999999397 	5.835550123235474e-12 	101324.9999999934
-0.2264764764764769 	299.9999999999573 	3.899377452795612e-12 	101324.9999999931
-0.2239739739739743 	299.9999999999702 	6.021260556644397e-12 	101324.999999993
-0.2214714714714718 	299.9999999999536 	5.497871694296378e-12 	101324.9999999931
-0.2189689689689693 	299.99999999998 	4.444934693559144e-12 	101324.9999999932
-0.2164664664664669 	299.9999999999838 	5.08118139831764e-12 	101324.9999999935
-0.2139639639639643 	299.9999999999475 	3.061718327341952e-12 	101324.9999999933
-0.2114614614614618 	299.99999999998 	4.766993582420696e-12 	101324.9999999932
-0.2089589589589593 	299.9999999999952 	5.376733503229538e-12 	101324.9999999935
-0.2064564564564568 	299.9999999999945 	5.867344277657979e-12 	101324.9999999936
-0.2039539539539543 	299.9999999999338 	6.439116147176855e-12 	101324.9999999935
-0.2014514514514518 	299.999999999959 	3.838452900083613e-12 	101324.9999999935
-0.1989489489489494 	299.9999999999813 	6.064561753733184e-12 	101324.9999999935
-0.1964464464464468 	299.9999999999961 	2.711222108480247e-12 	101324.9999999937
-0.1939439439439443 	299.999999999989 	5.848329614428274e-12 	101324.9999999933
-0.1914414414414418 	299.9999999999411 	3.529243997149305e-12 	101324.9999999934
-0.1889389389389393 	300.0000000000015 	4.991364271026999e-12 	101324.9999999937
-0.1864364364364368 	300.0000000000267 	4.7898834107778e-12 	101324.9999999935
-0.1839339339339343 	299.9999999999811 	5.503911226036536e-12 	101324.9999999935
-0.1814314314314318 	299.9999999999964 	4.461971286328996e-12 	101324.9999999936
-0.1789289289289293 	299.9999999999296 	4.624474026241926e-12 	101324.999999994
-0.1764264264264268 	299.9999999999817 	3.438190871905022e-12 	101324.9999999939
-0.1739239239239243 	299.9999999999261 	4.927470653452812e-12 	101324.9999999934
-0.1714214214214218 	299.9999999999902 	2.410992005084449e-12 	101324.9999999933
-0.1689189189189193 	299.9999999999681 	5.430427345649484e-12 	101324.9999999934
-0.1664164164164168 	300.000000000004 	1.050109129498061e-12 	101324.9999999936
-0.1639139139139143 	299.9999999999932 	6.056703669005219e-12 	101324.9999999936
-0.1614114114114118 	300.0000000000254 	1.140647215234557e-12 	101324.9999999936
-0.1589089089089093 	299.9999999999977 	8.035865045789568e-12 	101324.9999999936
-0.1564064064064068 	299.9999999999916 	1.872285075635124e-12 	101324.9999999938
-0.1539039039039043 	299.9999999999959 	9.034990711710708e-12 	101324.9999999936
-0.1514014014014018 	300.0000000000196 	8.260606328093512e-13 	101324.9999999937
-0.1488988988988993 	300.000000000001 	8.552274045452014e-12 	101324.9999999936
-0.1463963963963968 	300.0000000000044 	1.16139008132939e-12 	101324.9999999935
-0.1438938938938943 	299.9999999999673 	6.874303949292633e-12 	101324.9999999931
-0.1413913913913918 	299.9999999999445 	1.546383919712401e-12 	101324.9999999927
-0.1388888888888893 	299.9999999999831 	5.02271745021087e-12 	101324.9999999927
-0.1363863863863868 	299.9999999999209 	2.329829089297596e-12 	101324.9999999928
-0.1338838838838843 	299.9999999999435 	3.351405107179361e-12 	101324.999999993
-0.1313813813813818 	299.999999999993 	1.966637259059357e-12 	101324.9999999933
-0.1288788788788793 	299.9999999999764 	3.095883353828185e-12 	101324.9999999936
-0.1263763763763768 	299.9999999999744 	1.034468004254542e-12 	101324.9999999936
-0.1238738738738743 	299.999999999947 	2.93792570425521e-12 	101324.9999999936
-0.1213713713713717 	299.9999999999829 	9.87734966806114e-13 	101324.9999999935
-0.1188688688688693 	300.0000000000057 	5.201864533104624e-12 	101324.9999999935
-0.1163663663663668 	299.9999999999305 	1.737703836449219e-12 	101324.9999999937
-0.1138638638638643 	299.999999999996 	5.917106161673742e-12 	101324.9999999941
-0.1113613613613618 	299.9999999999897 	1.175798052736913e-12 	101324.9999999941
-0.1088588588588592 	299.9999999999843 	6.484586992791454e-12 	101324.9999999937
-0.1063563563563568 	299.9999999999607 	1.719290327503239e-12 	101324.9999999936
-0.1038538538538543 	299.9999999999835 	5.027704506818809e-12 	101324.9999999936
-0.1013513513513517 	300.0000000000131 	1.553824571510922e-12 	101324.9999999937
-0.09884884884884926 	299.9999999999524 	4.019728395338086e-12 	101324.9999999934
-0.09634634634634676 	299.9999999999293 	1.119710844185319e-12 	101324.9999999935
-0.09384384384384425 	299.9999999999456 	2.339504810662367e-12 	101324.9999999935
-0.09134134134134177 	300.0000000000163 	9.519275362336551e-13 	101324.9999999935
-0.08883883883883925 	300.0000000000044 	2.506119771358901e-12 	101324.9999999935
-0.08633633633633674 	299.9999999999661 	2.24324504087889e-12 	101324.9999999933
-0.08383383383383426 	300.000000000003 	2.446507877901816e-12 	101324.9999999933
-0.08133133133133173 	299.9999999999737 	2.430489744293501e-12 	101324.9999999936
-0.07882882882882926 	299.9999999999193 	2.495919629488493e-12 	101324.9999999937
-0.07632632632632676 	299.999999999968 	1.974016161851212e-12 	101324.9999999934
-0.07382382382382424 	299.9999999999228 	1.386574328581872e-12 	101324.9999999934
-0.07132132132132173 	300.000000000011 	1.135385268094742e-12 	101324.9999999933
-0.06881881881881925 	299.9999999999762 	1.165324557846639e-12 	101324.9999999931
-0.06631631631631671 	299.9999999999255 	6.44765384990973e-13 	101324.9999999933
-0.06381381381381425 	299.999999999969 	6.839838125800223e-14 	101324.9999999934
-0.06131131131131173 	299.9999999999705 	3.275695749144224e-13 	101324.9999999933
-0.05880880880880923 	299.9999999999361 	5.239923218670519e-13 	101324.9999999934
-0.05630630630630672 	299.9999999999784 	7.455368626887023e-13 	101324.9999999937
-0.05380380380380424 	300.0000000000104 	1.069802383724865e-12 	101324.9999999936
-0.05130130130130173 	300.0000000000094 	1.275211773434266e-12 	101324.9999999935
-0.04879879879879922 	299.9999999999568 	1.368794899516181e-12 	101324.9999999934
-0.04629629629629672 	299.999999999948 	7.601766613625395e-13 	101324.9999999933
-0.04379379379379422 	299.9999999999361 	9.043468182729736e-13 	101324.9999999932
-0.04129129129129173 	299.9999999999871 	1.889537574469869e-13 	101324.9999999932
-0.03878878878878922 	299.9999999999882 	3.386948388859993e-13 	101324.9999999931
-0.03628628628628671 	299.9999999999881 	1.038047040410787e-12 	101324.9999999933
-0.03378378378378422 	299.9999999999434 	1.41380726941937e-13 	101324.9999999934
-0.03128128128128172 	299.999999999972 	1.008196807225204e-13 	101324.9999999934
-0.02877877877877922 	299.9999999999715 	3.038821357065261e-13 	101324.9999999935
-0.0262762762762767 	299.9999999999273 	3.395610213355362e-13 	101324.9999999934
-0.02377377377377422 	300.000000000016 	1.459453119339417e-13 	101324.9999999936
-0.0212712712712717 	299.9999999999283 	8.347532348604768e-14 	101324.999999994
-0.01876876876876921 	299.9999999999765 	9.766451480057535e-13 	101324.9999999945
-0.01626626626626671 	300.0000000000101 	1.027681851627571e-12 	101324.9999999946
-0.0137637637637642 	299.9999999999755 	1.782935894400564e-12 	101324.9999999947
-0.0112612612612617 	300.0000000000147 	1.376048215735185e-12 	101324.9999999946
-0.008758758758759198 	299.999999999997 	7.212303426411359e-13 	101324.9999999946
-0.006256256256256697 	299.9999999999144 	4.660515249142896e-13 	101324.9999999946
-0.003753753753754195 	299.9999999999667 	1.3586757408941e-12 	101324.9999999944
-0.001251251251251693 	299.999999999948 	1.358471928428185e-12 	101324.9999999945
0.00125125125125081 	299.999999999967 	1.929152570497295e-12 	101324.9999999945
0.003753753753753312 	299.9999999999723 	2.040461234632338e-12 	101324.9999999944
0.006256256256255817 	299.9999999999199 	2.918912514658213e-12 	101324.9999999945
0.008758758758758317 	299.9999999999876 	2.640249532397924e-12 	101324.9999999942
0.01126126126126082 	299.9999999999997 	2.445502418397633e-12 	101324.999999994
0.01376376376376332 	299.9999999999796 	2.47403584169995e-12 	101324.9999999939
0.01626626626626582 	300.000000000007 	2.215488592587592e-12 	101324.9999999936
0.01876876876876833 	299.9999999999665 	1.99870720994756e-12 	101324.9999999935
0.02127127127127083 	299.9999999999766 	1.997476855018436e-12 	101324.9999999936
0.02377377377377332 	299.9999999999958 	1.897919653351711e-12 	101324.9999999933
0.02627627627627583 	299.9999999999267 	1.767677023360249e-12 	101324.9999999932
0.02877877877877833 	300.0000000000062 	2.019537611884242e-12 	101324.9999999929
0.03128128128128083 	299.9999999999629 	1.594876930783861e-12 	101324.9999999933
0.03378378378378333 	299.9999999999266 	2.689776051668548e-12 	101324.9999999933
0.03628628628628584 	299.9999999999799 	2.728955217259306e-12 	101324.9999999933
0.03878878878878834 	299.9999999999876 	2.979292065822988e-12 	101324.9999999934
0.04129129129129084 	299.9999999999847 	3.032253049916448e-12 	101324.9999999936
0.04379379379379333 	299.999999999961 	3.087867256126823e-12 	101324.9999999936
0.04629629629629585 	299.9999999999165 	2.156582677959023e-12 	101324.9999999937
0.04879879879879834 	299.9999999999694 	2.114294404415007e-12 	101324.9999999937
0.05130130130130085 	300.0000000000072 	1.299892675774387e-12 	101324.9999999937
0.05380380380380335 	300.0000000000146 	1.232069624494155e-12 	101324.9999999937
0.05630630630630584 	299.9999999999961 	3.587545543322031e-13 	101324.9999999939
0.05880880880880836 	299.9999999999415 	4.618465286451109e-13 	101324.999999994
0.06131131131131085 	299.9999999999769 	8.642262793906643e-13 	101324.9999999938
0.06381381381381336 	299.9999999999722 	1.165033608107255e-12 	101324.9999999936
0.06631631631631586 	299.9999999999198 	1.024982078093308e-12 	101324.9999999933
0.06881881881881835 	299.9999999999677 	2.260227480682237e-12 	101324.9999999932
0.07132132132132088 	299.9999999999898 	2.562788287867266e-12 	101324.999999993
0.07382382382382337 	299.9999999999259 	3.218362063768963e-12 	101324.9999999935
0.07632632632632587 	299.9999999999775 	3.141419417469779e-12 	101324.9999999937
0.07882882882882837 	299.9999999999528 	2.923869067123404e-12 	101324.9999999939
0.08133133133133086 	299.9999999999865 	3.256736953228812e-12 	101324.9999999936
0.08383383383383337 	299.99999999999 	2.684546883247249e-12 	101324.9999999936
0.08633633633633589 	299.9999999999293 	2.808356357211715e-12 	101324.9999999938
0.08883883883883838 	300.0000000000051 	3.047737544802009e-12 	101324.9999999939
0.09134134134134086 	299.9999999999839 	2.525176691128386e-12 	101324.999999994
0.09384384384384339 	299.9999999999242 	2.583450043039601e-12 	101324.9999999939
0.09634634634634588 	299.9999999999731 	2.785400656420743e-12 	101324.999999994
0.09884884884884838 	299.9999999999825 	2.79025498186309e-12 	101324.9999999941
0.1013513513513509 	300.0000000000133 	2.500847195895345e-12 	101324.9999999939
0.1038538538538534 	299.9999999999676 	1.957626714587993e-12 	101324.9999999936
0.1063563563563559 	300.000000000002 	1.854811514330316e-12 	101324.9999999937
0.1088588588588584 	300.00000000002 	1.79944732199332e-12 	101324.9999999936
0.1113613613613609 	299.9999999999451 	2.501138170087087e-12 	101324.9999999933
0.1138638638638634 	299.9999999999569 	2.116841651157396e-12 	101324.9999999932
0.1163663663663659 	299.9999999999613 	1.797025988704972e-12 	101324.9999999931
0.1188688688688684 	299.999999999985 	1.523854438043859e-12 	101324.9999999931
0.1213713713713709 	300.0000000000041 	1.017221045825434e-12 	101324.9999999931
0.1238738738738734 	299.9999999999454 	1.787411247924871e-12 	101324.9999999932
0.1263763763763759 	299.999999999991 	2.114165300457055e-12 	101324.9999999932
0.1288788788788784 	299.9999999999888 	2.055605167998701e-12 	101324.9999999931
0.1313813813813809 	299.9999999999832 	2.538848987596076e-12 	101324.9999999931
0.1338838838838834 	299.9999999999799 	3.465747235786075e-12 	101324.9999999934
0.1363863863863859 	300.000000000009 	3.285740920890919e-12 	101324.9999999933
0.1388888888888884 	300.0000000000277 	3.515084178967361e-12 	101324.9999999934
0.1413913913913909 	300.000000000005 	3.055447629329943e-12 	101324.9999999934
0.1438938938938934 	299.9999999999962 	3.062513941862867e-12 	101324.9999999942
0.1463963963963959 	299.9999999999694 	2.345215548414921e-12 	101324.9999999943
0.1488988988988985 	299.9999999999372 	3.884963212562164e-12 	101324.9999999944
0.1514014014014009 	299.9999999999768 	2.941898570287005e-12 	101324.9999999944
0.1539039039039035 	299.9999999999734 	5.607800096662567e-12 	101324.9999999942
0.1564064064064059 	299.9999999999524 	3.932901302268713e-12 	101324.9999999941
0.1589089089089084 	299.9999999999811 	7.054166238837941e-12 	101324.9999999939
0.1614114114114109 	299.9999999999779 	3.925036775146029e-12 	101324.9999999936
0.1639139139139134 	299.9999999999326 	5.202844716390318e-12 	101324.9999999938
0.166416416416416 	300.0000000000048 	4.125327987041176e-12 	101324.9999999939
0.1689189189189185 	300.0000000000198 	3.856789827072455e-12 	101324.9999999939
0.1714214214214209 	300.0000000000022 	4.189926745611705e-12 	101324.9999999937
0.1739239239239235 	299.9999999999879 	2.836252999264219e-12 	101324.9999999938
0.1764264264264259 	299.999999999979 	4.747641060852613e-12 	101324.9999999935
0.1789289289289284 	300.000000000001 	1.941059887464032e-12 	101324.999999993
0.181431431431431 	299.9999999999711 	4.231053790421656e-12 	101324.9999999932
0.1839339339339334 	299.9999999999739 	1.936316777671039e-12 	101324.999999993
0.186436436436436 	299.9999999999505 	3.340268253629409e-12 	101324.999999993
0.1889389389389385 	299.999999999979 	2.757700139319806e-12 	101324.999999993
0.191441441441441 	299.9999999999803 	2.670945713655755e-12 	101324.9999999931
0.1939439439439434 	299.9999999999447 	3.619308122779692e-12 	101324.9999999932
0.196446446446446 	299.9999999999646 	2.092137784124403e-12 	101324.999999993
0.1989489489489485 	299.9999999999691 	4.600590988986251e-12 	101324.9999999928
0.2014514514514509 	299.9999999999904 	2.321826270399174e-12 	101324.9999999929
0.2039539539539535 	299.9999999999955 	3.405702102778718e-12 	101324.9999999929
0.2064564564564559 	299.9999999999628 	2.935341772156241e-12 	101324.9999999929
0.2089589589589585 	299.9999999999893 	3.919634805032264e-12 	101324.9999999929
0.211461461461461 	299.9999999999479 	4.079832199662113e-12 	101324.9999999928
0.2139639639639635 	299.9999999999814 	3.7779774892257e-12 	101324.9999999931
0.2164664664664659 	300.0000000000007 	4.834990458467531e-12 	101324.999999993
0.2189689689689684 	300.0000000000006 	2.642884516011571e-12 	101324.9999999929
0.221471471471471 	299.9999999999957 	4.521680516496848e-12 	101324.9999999931
0.2239739739739735 	299.9999999999699 	2.085217685291421e-12 	101324.9999999931
0.226476476476476 	299.9999999999851 	3.233472240649361e-12 	101324.9999999931
0.2289789789789785 	299.9999999999922 	2.682184071884344e-12 	101324.999999993
0.231481481481481 	299.9999999999894 	3.576524843327175e-12 	101324.9999999931
0.2339839839839835 	299.9999999999882 	3.900709097585177e-12 	101324.9999999929
0.236486486486486 	300.0000000000184 	3.399488971249374e-12 	101324.9999999931
0.2389889889889885 	300.0000000000015 	4.919345848544084e-12 	101324.9999999928
0.241491491491491 	299.9999999999404 	3.486119475344626e-12 	101324.9999999927
0.2439939939939935 	299.9999999999826 	7.124118887302657e-12 	101324.9999999926
0.246496496496496 	299.9999999999924 	5.323803931816103e-12 	101324.9999999923
0.2489989989989985 	300.0000000000264 	6.237702509801198e-12 	101324.9999999924
0.251501501501501 	300.0000000000222 	4.40229350943144e-12 	101324.9999999921
0.2540040040040035 	299.9999999999927 	4.229751576429571e-12 	101324.9999999921
0.256506506506506 	300.0000000000176 	5.118451612488436e-12 	101324.9999999923
0.2590090090090086 	299.9999999999412 	3.559619527668443e-12 	101324.9999999923
0.261511511511511 	299.9999999999994 	5.881235009132141e-12 	101324.9999999922
0.2640140140140135 	299.9999999999936 	3.241039812687503e-12 	101324.9999999924
0.2665165165165161 	299.9999999999491 	4.702733834651406e-12 	101324.9999999924
0.2690190190190185 	300.000000000007 	3.121254960455818e-12 	101324.9999999925
0.271521521521521 	300.0000000000106 	3.089973616235302e-12 	101324.9999999927
0.2740240240240235 	300.0000000000146 	2.771435074804508e-12 	101324.9999999929
0.276526526526526 	300.0000000000075 	1.680724388554867e-12 	101324.9999999931
0.2790290290290286 	299.9999999999604 	2.522725294733271e-12 	101324.9999999931
0.281531531531531 	299.9999999999438 	1.228937135135092e-12 	101324.9999999931
0.2840340340340335 	299.9999999999878 	3.676617695628422e-12 	101324.9999999928
0.2865365365365361 	299.9999999999724 	2.660112902830378e-12 	101324.9999999931
0.2890390390390385 	299.999999999998 	3.735726269111156e-12 	101324.9999999934
0.291541541541541 	299.9999999999981 	3.639904523704923e-12 	101324.9999999935
0.2940440440440436 	299.9999999999916 	2.951191250219964e-12 	101324.9999999936
0.296546546546546 	299.9999999999943 	3.960186365477277e-12 	101324.9999999936
0.2990490490490486 	299.9999999999593 	1.983507114605173e-12 	101324.9999999935
0.3015515515515511 	300.0000000000246 	4.815088820670769e-12 	101324.9999999934
0.3040540540540535 	299.9999999999935 	1.252065745086264e-12 	101324.9999999933
0.3065565565565562 	299.9999999999962 	4.777002785668263e-12 	101324.999999993
0.3090590590590585 	299.9999999999905 	1.046674921810998e-12 	101324.9999999929
0.3115615615615611 	299.9999999999579 	4.64302685315965e-12 	101324.999999993
0.3140640640640635 	300.0000000000038 	2.249734565557925e-12 	101324.999999993
0.316566566566566 	299.9999999999938 	4.520303148275648e-12 	101324.9999999932
0.3190690690690687 	299.9999999999669 	2.739487311434512e-12 	101324.999999993
0.3215715715715711 	300.0000000000064 	4.047518765124911e-12 	101324.9999999926
0.3240740740740735 	299.9999999999946 	1.917725812316374e-12 	101324.9999999927
0.326576576576576 	299.999999999925 	3.283499955078433e-12 	101324.999999993
0.3290790790790786 	300.0000000000038 	2.404519865933332e-12 	101324.9999999928
0.3315815815815811 	300.0000000000265 	2.665665420333275e-12 	101324.9999999929
0.3340840840840836 	299.9999999999907 	1.88806205536506e-12 	101324.999999993
0.3365865865865861 	300.0000000000377 	2.342659534503383e-12 	101324.999999993
0.3390890890890886 	300.0000000000349 	7.852755664639724e-13 	101324.9999999933
0.3415915915915911 	299.9999999999978 	2.012663391516058e-12 	101324.9999999934
0.3440940940940935 	299.9999999999666 	1.287217859762888e-12 	101324.9999999933
0.3465965965965962 	300.0000000000297 	2.844956837031161e-12 	101324.9999999931
0.3490990990990985 	300.0000000000229 	1.129720948671074e-12 	101324.9999999933
0.3516016016016011 	299.999999999988 	1.444614750021509e-12 	101324.9999999931
0.3541041041041035 	300.0000000000029 	7.435941566973943e-13 	101324.999999993
0.3566066066066061 	299.9999999999708 	4.597580093405295e-13 	101324.9999999933
0.3591091091091085 	299.9999999999443 	2.008375291846941e-12 	101324.999999993
0.3616116116116112 	299.999999999957 	1.096348723209921e-12 	101324.9999999929
0.3641141141141137 	299.99999999995 	2.766254500048965e-12 	101324.999999993
0.3666166166166161 	299.9999999999424 	1.323398388927739e-12 	101324.9999999931
0.3691191191191185 	300.0000000000235 	3.532861643192918e-12 	101324.9999999931
0.371621621621621 	300.0000000000121 	1.2063227278898e-12 	101324.9999999931
0.3741241241241237 	300.0000000000335 	1.786034910483916e-12 	101324.9999999928
0.3766266266266261 	300.0000000000209 	1.960351014348138e-12 	101324.9999999928
0.3791291291291286 	299.999999999991 	5.857962044060622e-13 	101324.9999999926
0.3816316316316311 	299.9999999999395 	1.901139841782934e-12 	101324.9999999925
0.3841341341341336 	300.0000000000073 	7.455281289239528e-13 	101324.9999999928
0.3866366366366362 	299.9999999999974 	1.462940976897336e-12 	101324.999999993
0.3891391391391387 	299.9999999999691 	1.981187808042785e-13 	101324.999999993
0.391641641641641 	299.9999999999919 	9.035173020902657e-13 	101324.9999999931
0.3941441441441436 	300.0000000000019 	2.352747664214003e-13 	101324.9999999931
0.3966466466466462 	299.9999999999957 	1.000858090231185e-12 	101324.9999999933
0.3991491491491486 	299.9999999999596 	5.347141785293732e-13 	101324.9999999933
0.4016516516516512 	299.999999999939 	1.614526034076922e-12 	101324.9999999935
0.4041541541541536 	299.9999999999685 	6.418690238311746e-13 	101324.9999999936
0.4066566566566561 	299.9999999999631 	1.278880221292407e-12 	101324.9999999936
0.4091591591591587 	299.9999999999905 	8.072083684152077e-13 	101324.9999999939
0.4116616616616612 	299.9999999999977 	9.041358421567336e-13 	101324.9999999939
0.4141641641641635 	300.0000000000276 	1.228469693705634e-13 	101324.9999999935
0.4166666666666662 	299.9999999999998 	1.912990254871559e-13 	101324.9999999932
0.4191691691691687 	299.9999999999595 	1.042694057047658e-12 	101324.999999993
0.421671671671671 	300.000000000003 	1.591592470111281e-12 	101324.9999999928
0.4241741741741737 	299.9999999999837 	2.111089910952001e-12 	101324.9999999929
0.4266766766766761 	299.9999999999646 	2.113283167312564e-12 	101324.9999999931
0.4291791791791785 	300.0000000000144 	3.07692334375074e-12 	101324.9999999934
0.4316816816816812 	300.0000000000061 	2.121504052883335e-12 	101324.9999999933
0.4341841841841836 	299.9999999999886 	3.01217353344123e-12 	101324.9999999934
0.4366866866866862 	299.999999999942 	1.464101837054933e-12 	101324.9999999934
0.4391891891891885 	299.999999999991 	1.512392427246948e-12 	101324.9999999934
0.4416916916916913 	299.9999999999898 	1.110319955370018e-12 	101324.9999999933
0.4441941941941936 	299.999999999993 	1.928323787131897e-12 	101324.999999993
0.4466966966966961 	299.9999999999394 	1.254179792485482e-12 	101324.9999999929
0.4491991991991987 	299.999999999984 	1.404039755091262e-12 	101324.9999999928
0.4517017017017012 	299.9999999999827 	1.172646318212572e-12 	101324.9999999925
0.4542042042042035 	299.9999999999921 	8.809354014252545e-13 	101324.9999999923
0.4567067067067062 	299.9999999999964 	1.249533794076472e-12 	101324.9999999924
0.4592092092092087 	299.9999999999472 	3.507346335571128e-13 	101324.9999999928
0.4617117117117112 	300.000000000016 	5.390248451034042e-13 	101324.999999993
0.4642142142142137 	299.9999999999731 	4.524567850575111e-13 	101324.9999999932
0.4667167167167162 	299.9999999999949 	5.262802593257806e-13 	101324.9999999931
0.4692192192192187 	299.9999999999675 	7.699612980387802e-13 	101324.9999999933
0.4717217217217212 	300.000000000007 	9.822735680496475e-13 	101324.9999999931
0.4742242242242236 	299.9999999999679 	1.942805766374808e-12 	101324.9999999931
0.4767267267267262 	299.9999999999791 	2.20437150865129e-12 	101324.9999999931
0.4792292292292287 	300.0000000000128 	2.676315653958966e-12 	101324.9999999933
0.4817317317317312 	300.0000000000239 	2.850017980182254e-12 	101324.9999999934
0.4842342342342336 	299.999999999987 	2.878210714795793e-12 	101324.9999999933
0.4867367367367362 	299.9999999999651 	3.079793866151227e-12 	101324.9999999933
0.4892392392392387 	300.0000000000207 	2.088303163051528e-12 	101324.9999999932
0.4917417417417412 	300.0000000000035 	3.60655541049143e-12 	101324.9999999932
0.4942442442442437 	299.999999999935 	2.28234739426757e-12 	101324.9999999933
0.4967467467467462 	299.9999999999492 	3.216522374222117e-12 	101324.9999999933
0.4992492492492487 	299.9999999999416 	1.394403611409322e-12 	101324.9999999935
0.5017517517517511 	299.9999999999658 	2.250808780455101e-12 	101324.9999999933
0.5042542542542537 	299.9999999999731 	9.07184568927559e-13 	101324.9999999933
0.5067567567567562 	299.9999999999574 	7.290342826316944e-13 	101324.9999999932
0.5092592592592589 	299.9999999999749 	8.237704525783228e-13 	101324.999999993
0.5117617617617611 	299.9999999999709 	1.213567579383265e-12 	101324.9999999928
0.5142642642642637 	299.999999999989 	1.620405944669138e-12 	101324.9999999929
0.5167667667667663 	299.9999999999791 	1.8027495296427e-12 	101324.9999999927
0.5192692692692688 	299.999999999944 	3.52131491940681e-12 	101324.9999999927
0.5217717717717714 	299.9999999999591 	2.762877468230349e-12 	101324.9999999926
0.5242742742742736 	299.9999999999606 	3.124231787381067e-12 	101324.9999999928
0.5267767767767763 	299.9999999999711 	1.646211165827933e-12 	101324.9999999931
0.5292792792792789 	299.9999999999566 	3.128126017357478e-12 	101324.9999999934
0.5317817817817813 	299.9999999999367 	1.414865670279299e-12 	101324.9999999935
0.5342842842842837 	300.0000000000142 	2.805075253445866e-12 	101324.9999999933
0.5367867867867864 	300.0000000000026 	1.9493061304048e-12 	101324.9999999931
0.5392892892892888 	299.9999999999704 	2.435100783164231e-12 	101324.999999993
0.5417917917917912 	300.0000000000002 	1.580919242473364e-12 	101324.9999999928
0.5442942942942938 	299.9999999999872 	2.048621364507096e-12 	101324.9999999928
0.5467967967967964 	299.9999999999678 	1.186526571000113e-12 	101324.9999999928
0.5492992992992988 	299.9999999999606 	1.391921630621599e-12 	101324.999999993
0.5518018018018012 	299.999999999957 	5.728478810443525e-13 	101324.999999993
0.5543043043043039 	300.0000000000139 	1.402978737615919e-12 	101324.9999999934
0.5568068068068063 	299.9999999999927 	1.064411419046143e-12 	101324.9999999935
0.5593093093093087 	299.9999999999359 	2.062437904938053e-12 	101324.9999999936
0.5618118118118114 	299.9999999999729 	5.339425462047501e-13 	101324.9999999933
0.5643143143143137 	299.999999999966 	1.237331044890836e-12 	101324.9999999933
0.5668168168168163 	299.9999999999919 	4.972610501632408e-13 	101324.9999999935
0.5693193193193188 	300.0000000000252 	5.39746029756984e-13 	101324.9999999935
0.5718218218218213 	300.0000000000189 	1.216734115500774e-12 	101324.9999999932
0.5743243243243239 	300.0000000000045 	1.024953037306684e-12 	101324.9999999929
0.5768268268268262 	300.0000000000034 	2.256302502635808e-12 	101324.999999993
0.5793293293293288 	299.9999999999612 	1.57403656395435e-12 	101324.999999993
0.5818318318318314 	299.9999999999453 	3.422274437510951e-12 	101324.9999999932
0.5843343343343338 	299.9999999999888 	2.037091345827843e-12 	101324.9999999931
0.5868368368368363 	299.9999999999846 	3.599453734607624e-12 	101324.9999999931
0.5893393393393387 	299.9999999999624 	1.38322320922226e-12 	101324.9999999934
0.5918418418418413 	299.9999999999588 	2.982409636669749e-12 	101324.9999999935
0.5943443443443439 	300.0000000000108 	1.20636226324149e-12 	101324.9999999936
0.5968468468468463 	300.0000000000108 	2.275085419986713e-12 	101324.9999999938
0.5993493493493487 	300.0000000000199 	1.801409874829372e-12 	101324.9999999938
0.6018518518518514 	299.999999999987 	2.88017583280434e-12 	101324.999999994
0.6043543543543537 	300.0000000000012 	2.583978276794989e-12 	101324.999999994
0.6068568568568564 	299.9999999999918 	3.600782208127536e-12 	101324.9999999938
0.6093593593593587 	299.9999999999563 	3.539879099566577e-12 	101324.9999999938
0.6118618618618614 	299.9999999999499 	3.783658129078351e-12 	101324.9999999937
0.6143643643643638 	300.0000000000139 	2.890199947045167e-12 	101324.9999999936
0.6168668668668662 	299.9999999999966 	4.152192086226315e-12 	101324.9999999936
0.6193693693693688 	299.9999999999711 	3.051109773853093e-12 	101324.9999999938
0.6218718718718714 	299.9999999999789 	4.055867460794532e-12 	101324.9999999937
0.6243743743743737 	299.9999999999566 	2.587668304428955e-12 	101324.9999999936
0.6268768768768762 	299.999999999952 	4.789300015164886e-12 	101324.9999999936
0.629379379379379 	299.9999999999684 	3.798746128448225e-12 	101324.9999999936
0.6318818818818812 	299.9999999999854 	4.44446566000701e-12 	101324.9999999935
0.6343843843843838 	300.0000000000088 	4.330679685642881e-12 	101324.9999999939
0.6368868868868864 	299.9999999999879 	4.517823063110822e-12 	101324.9999999939
0.6393893893893888 	299.9999999999472 	5.36900357276434e-12 	101324.999999994
0.6418918918918912 	300.0000000000005 	3.689317924046798e-12 	101324.9999999941
0.6443943943943939 	299.9999999999837 	6.111724814070835e-12 	101324.9999999942
0.6468968968968963 	299.9999999999864 	2.539411433712678e-12 	101324.9999999943
0.6493993993993988 	299.999999999979 	5.404233403636943e-12 	101324.9999999942
0.6519019019019012 	299.9999999999837 	2.90544003749002e-12 	101324.9999999941
0.6544044044044038 	299.9999999999354 	4.499582734020676e-12 	101324.9999999941
0.6569069069069065 	299.9999999999641 	1.669744590429e-12 	101324.9999999939
0.6594094094094087 	299.9999999999728 	3.210262801689679e-12 	101324.9999999938
0.6619119119119113 	299.9999999999648 	1.794478562894914e-12 	101324.9999999938
0.664414414414414 	299.9999999999989 	2.626233381959966e-12 	101324.9999999937
0.6669169169169162 	300.0000000000132 	1.72083741130964e-12 	101324.9999999939
0.6694194194194188 	299.9999999999891 	2.491517608032142e-12 	101324.9999999939
0.6719219219219214 	299.9999999999453 	1.464537308632586e-12 	101324.9999999938
0.674424424424424 	299.9999999999796 	1.82447675346501e-12 	101324.9999999939
0.6769269269269262 	299.9999999999477 	1.308374918627886e-12 	101324.999999994
0.679429429429429 	300.0000000000045 	2.374556482598611e-12 	101324.999999994
0.6819319319319311 	299.9999999999866 	3.123897501663601e-12 	101324.9999999937
0.6844344344344341 	299.999999999993 	4.475828570052664e-12 	101324.9999999936
0.686936936936936 	299.9999999999943 	3.72531670313851e-12 	101324.9999999939
0.6894394394394392 	299.9999999999985 	4.079996565063688e-12 	101324.9999999937
0.6919419419419413 	299.9999999999887 	3.389632927958265e-12 	101324.9999999936
0.694444444444444 	299.9999999999549 	3.042894232800042e-12 	101324.9999999937
0.6969469469469463 	299.9999999999511 	2.577325971141677e-12 	101324.9999999937
0.6994494494494489 	299.9999999999445 	1.307403573127417e-12 	101324.9999999939
0.7019519519519515 	299.9999999999903 	2.002765818325555e-12 	101324.9999999938
0.7044544544544538 	299.9999999999665 	1.388146602947413e-12 	101324.9999999938
0.7069569569569564 	299.9999999999927 	2.219278541863677e-12 	101324.9999999937
0.7094594594594589 	299.9999999999741 	1.694089368010322e-12 	101324.9999999935
0.7119619619619615 	299.9999999999381 	1.46035778515186e-12 	101324.9999999936
0.7144644644644638 	299.9999999999603 	8.916602552299357e-13 	101324.9999999938
0.7169669669669665 	299.9999999999437 	2.27103669782648e-12 	101324.999999994
0.7194694694694688 	299.9999999999908 	1.913986330247637e-12 	101324.9999999943
0.7219719719719715 	299.9999999999851 	2.490087164022713e-12 	101324.9999999943
0.7244744744744737 	300.0000000000018 	2.197351015387726e-12 	101324.9999999942
0.7269769769769764 	299.9999999999952 	2.186146566955008e-12 	101324.9999999943
0.7294794794794791 	299.9999999999926 	2.824130621074558e-12 	101324.9999999943
0.7319819819819813 	299.9999999999869 	1.493613262476327e-12 	101324.9999999944
0.7344844844844839 	299.9999999999476 	2.383589582694676e-12 	101324.9999999944
0.7369869869869864 	299.9999999999685 	1.137478852570191e-12 	101324.9999999945
0.739489489489489 	299.9999999999584 	1.062747587384708e-12 	101324.9999999945
0.7419919919919914 	299.9999999999491 	1.556552324923644e-12 	101324.9999999944
0.7444944944944939 	299.9999999999835 	1.744885697713572e-12 	101324.9999999943
0.7469969969969963 	299.9999999999819 	2.031867526493416e-12 	101324.9999999943
0.7494994994994989 	299.9999999999606 	2.300183811729279e-12 	101324.9999999942
0.7520020020020015 	299.9999999999843 	2.37536614391884e-12 	101324.9999999943
0.7545045045045039 	299.9999999999831 	1.702503528185901e-12 	101324.9999999943
0.7570070070070062 	299.9999999999613 	1.16915727084542e-12 	101324.9999999942
0.7595095095095092 	299.9999999999486 	8.553186313640799e-13 	101324.9999999942
0.7620120120120112 	299.9999999999999 	3.470493209981619e-13 	101324.999999994
0.7645145145145138 	299.9999999999914 	5.795373523053838e-13 	101324.9999999939
0.7670170170170165 	299.9999999999538 	1.010293346851009e-12 	101324.9999999938
0.7695195195195191 	299.9999999999444 	1.692621542386272e-12 	101324.9999999939
0.7720220220220213 	299.9999999999526 	1.239307421421666e-12 	101324.9999999938
0.7745245245245239 	299.99999999996 	1.283461069424797e-12 	101324.9999999939
0.7770270270270263 	299.9999999999809 	1.563499943037256e-12 	101324.999999994
0.779529529529529 	299.9999999999847 	2.621507260964718e-13 	101324.9999999939
0.7820320320320313 	299.9999999999791 	1.399014672202534e-13 	101324.999999994
0.784534534534534 	299.999999999997 	3.900236374649979e-13 	101324.9999999942
0.7870370370370364 	299.9999999999927 	1.029448225987747e-12 	101324.9999999946
0.7895395395395389 	299.9999999999844 	1.75128649930082e-12 	101324.9999999948
0.7920420420420413 	299.999999999985 	1.896436931453249e-12 	101324.9999999948
0.794544544544544 	299.9999999999896 	2.456477400365843e-12 	101324.9999999948
0.7970470470470463 	300.000000000005 	2.287493626396573e-12 	101324.9999999946
0.799549549549549 	299.9999999999874 	2.35206589183692e-12 	101324.9999999944
0.8020520520520515 	299.9999999999942 	1.502592499311347e-12 	101324.9999999944
0.8045545545545539 	299.9999999999666 	1.062300492147446e-12 	101324.9999999948
0.8070570570570563 	299.9999999999921 	1.099011474884664e-12 	101324.9999999949
0.8095595595595589 	299.9999999999732 	5.037398427064168e-13 	101324.999999995
0.8120620620620614 	299.9999999999555 	3.374337533008861e-13 	101324.9999999949
0.8145645645645638 	299.9999999999961 	1.149024433357147e-12 	101324.9999999947
0.8170670670670666 	299.9999999999902 	1.710880509641119e-12 	101324.9999999946
0.8195695695695689 	299.9999999999827 	2.109277587513894e-12 	101324.9999999945
0.8220720720720714 	299.9999999999613 	2.340666928607313e-12 	101324.9999999942
0.8245745745745739 	299.9999999999991 	1.511369218406293e-12 	101324.9999999942
0.8270770770770765 	299.9999999999848 	3.515375037909585e-12 	101324.999999994
0.8295795795795788 	299.9999999999624 	3.465202418880488e-12 	101324.9999999939
0.8320820820820815 	300.0000000000122 	4.138317272171967e-12 	101324.9999999941
0.834584584584584 	300.0000000000028 	3.556528825206267e-12 	101324.999999994
0.8370870870870865 	299.9999999999794 	3.54333236035367e-12 	101324.9999999939
0.8395895895895891 	299.9999999999509 	4.365140954029479e-12 	101324.9999999939
0.8420920920920915 	299.9999999999554 	3.707169088204697e-12 	101324.9999999938
0.844594594594594 	299.9999999999534 	3.5631406227303e-12 	101324.9999999937
0.8470970970970964 	299.9999999999624 	3.511711184183302e-12 	101324.9999999934
0.8495995995995991 	299.9999999999881 	3.679163947192396e-12 	101324.9999999936
0.8521021021021015 	299.9999999999831 	3.836049830282425e-12 	101324.9999999937
0.8546046046046039 	299.9999999999823 	3.14662801311504e-12 	101324.9999999938
0.8571071071071066 	299.9999999999956 	3.759678899652951e-12 	101324.9999999936
0.8596096096096089 	299.9999999999685 	2.137318532259587e-12 	101324.9999999935
0.8621121121121116 	299.9999999999467 	3.837647654650762e-12 	101324.9999999936
0.8646146146146139 	299.9999999999907 	2.009233601326856e-12 	101324.9999999937
0.8671171171171166 	299.9999999999795 	2.854916763574781e-12 	101324.9999999937
0.8696196196196189 	299.9999999999642 	2.257949593611991e-12 	101324.9999999937
0.8721221221221216 	299.9999999999786 	2.589564839048067e-12 	101324.9999999936
0.874624624624624 	300.0000000000001 	2.14296833344859e-12 	101324.9999999937
0.8771271271271264 	300.0000000000034 	2.051436547841045e-12 	101324.9999999939
0.879629629629629 	300.0000000000057 	3.140437086842409e-12 	101324.9999999939
0.8821321321321317 	299.9999999999886 	2.56118060015633e-12 	101324.9999999941
0.8846346346346339 	299.9999999999413 	4.291270088070554e-12 	101324.9999999942
0.8871371371371364 	299.9999999999663 	2.165803057996441e-12 	101324.9999999943
0.8896396396396391 	299.9999999999694 	2.727125735607705e-12 	101324.9999999942
0.8921421421421414 	299.9999999999711 	1.43778998545472e-12 	101324.9999999941
0.8946446446446441 	299.999999999989 	1.495530589573443e-12 	101324.999999994
0.8971471471471464 	300.0000000000013 	1.07531799500912e-12 	101324.9999999939
0.8996496496496489 	299.9999999999834 	7.277636054310816e-13 	101324.9999999938
0.9021521521521517 	299.999999999972 	9.73893776140806e-13 	101324.9999999937
0.9046546546546541 	299.999999999992 	7.869849656232413e-13 	101324.9999999936
0.9071571571571564 	299.999999999963 	1.614059612179179e-12 	101324.9999999936
0.9096596596596589 	299.9999999999638 	1.910625591958317e-12 	101324.9999999937
0.9121621621621616 	300.0000000000048 	2.046495966964137e-12 	101324.9999999938
0.9146646646646639 	299.9999999999876 	2.055998169399799e-12 	101324.9999999939
0.9171671671671666 	299.9999999999652 	2.129173318307554e-12 	101324.999999994
0.9196696696696689 	300.0000000000027 	2.889971293476229e-12 	101324.9999999938
0.9221721721721714 	300.0000000000029 	2.294976817823336e-12 	101324.9999999937
0.9246746746746741 	299.9999999999635 	2.827149753813679e-12 	101324.9999999937
0.9271771771771765 	299.9999999999633 	1.324362864078225e-12 	101324.9999999937
0.9296796796796791 	299.9999999999902 	1.869933558398784e-12 	101324.9999999936
0.9321821821821816 	299.9999999999735 	1.252761853303676e-12 	101324.9999999933
0.9346846846846838 	299.9999999999615 	2.406547115362925e-12 	101324.9999999933
0.9371871871871866 	300.0000000000011 	2.114002762634721e-12 	101324.9999999932
0.9396896896896891 	300.0000000000002 	1.895140008287552e-12 	101324.9999999933
0.9421921921921914 	299.999999999999 	2.461937216247231e-12 	101324.9999999931
0.9446946946946939 	299.9999999999728 	1.943834086793609e-12 	101324.9999999929
0.9471971971971965 	299.9999999999412 	3.032177826079966e-12 	101324.9999999928
0.9496996996996991 	299.9999999999658 	1.713605069438676e-12 	101324.9999999927
0.9522022022022016 	299.9999999999755 	2.996867179607002e-12 	101324.9999999927
0.9547047047047038 	299.9999999999785 	2.279612086754563e-12 	101324.9999999929
0.9572072072072064 	299.999999999975 	3.036060347071675e-12 	101324.999999993
0.9597097097097093 	299.9999999999826 	3.155521269564117e-12 	101324.9999999929
0.9622122122122114 	299.999999999977 	3.129006190148644e-12 	101324.999999993
0.964714714714714 	299.9999999999756 	3.43506356884615e-12 	101324.9999999931
0.9672172172172167 	299.999999999972 	2.680731183749876e-12 	101324.9999999933
0.969719719719719 	299.99999999999 	2.894828703746546e-12 	101324.9999999933
0.9722222222222214 	299.9999999999862 	2.359397662578818e-12 	101324.9999999933
0.9747247247247239 	299.9999999999802 	2.346023658399401e-12 	101324.9999999933
0.9772272272272267 	299.9999999999986 	2.346359369686726e-12 	101324.9999999933
0.9797297297297292 	299.9999999999944 	2.204899527020705e-12 	101324.9999999932
0.9822322322322313 	299.999999999996 	3.073274494386087e-12 	101324.9999999931
0.9847347347347344 	299.9999999999906 	2.29661001002581e-12 	101324.999999993
0.9872372372372363 	299.9999999999671 	3.727092953617345e-12 	101324.999999993
0.9897397397397389 	299.9999999999746 	2.298883372072707e-12 	101324.9999999929
0.9922422422422417 	299.9999999999586 	3.337449468103888e-12 	101324.9999999928
0.9947447447447441 	299.9999999999649 	2.373902721732722e-12 	101324.9999999928
0.9972472472472468 	299.9999999999742 	2.887729671442404e-12 	101324.9999999929
0.999749749749749 	299.999999999974 	2.293531894092124e-12 	101324.9999999928
1.002252252252252 	299.9999999999842 	1.672971212059567e-12 	101324.9999999929
1.004754754754754 	299.9999999999865 	2.504353291753792e-12 	101324.999999993
1.007257257257256 	299.9999999999728 	2.332617910204542e-12 	101324.9999999931
1.009759759759759 	299.999999999965 	1.783165720893337e-12 	101324.9999999932
1.012262262262261 	299.9999999999702 	1.528146949053839e-12 	101324.9999999931
1.014764764764764 	299.999999999947 	3.023683150210111e-12 	101324.9999999932
1.017267267267267 	299.9999999999379 	2.692954028484465e-12 	101324.9999999932
1.019769769769769 	299.9999999999762 	2.859415204390256e-12 	101324.9999999932
1.022272272272272 	299.9999999999846 	1.824054877899106e-12 	101324.9999999933
1.024774774774774 	299.9999999999766 	1.455345979310542e-12 	101324.9999999934
1.027277277277277 	299.9999999999745 	1.652479019448049e-12 	101324.9999999933
1.029779779779779 	299.9999999999978 	1.100509155090725e-12 	101324.9999999932
1.032282282282282 	299.999999999998 	1.279739250931447e-12 	101324.9999999933
1.034784784784784 	299.9999999999904 	7.920175843640198e-13 	101324.9999999932
1.037287287287286 	299.9999999999703 	6.226792251506643e-13 	101324.9999999932
1.039789789789789 	299.9999999999839 	1.0739845311429e-12 	101324.999999993
1.042292292292291 	300.0000000000072 	1.639883968976161e-12 	101324.9999999929
1.044794794794794 	300.0000000000078 	2.218702246458649e-12 	101324.9999999929
1.047297297297296 	300.0000000000243 	1.665093476827745e-12 	101324.9999999929
1.049799799799799 	299.9999999999865 	1.8054049134932e-12 	101324.9999999929
1.052302302302302 	299.9999999999664 	1.580448894964803e-12 	101324.9999999928
1.054804804804804 	299.9999999999559 	5.324509049333081e-13 	101324.9999999928
1.057307307307306 	299.9999999999378 	7.306552535491769e-13 	101324.9999999928
1.059809809809809 	299.9999999999656 	1.76411609355087e-13 	101324.9999999928
1.062312312312312 	299.9999999999627 	5.175419661476468e-13 	101324.9999999929
1.064814814814814 	299.9999999999587 	5.396343555214647e-13 	101324.999999993
1.067317317317317 	299.999999999938 	1.11002417537036e-12 	101324.9999999931
1.069819819819819 	299.9999999999395 	1.549822415087372e-12 	101324.999999993
1.072322322322321 	299.9999999999821 	8.591216639793918e-13 	101324.9999999928
1.074824824824824 	299.9999999999886 	6.460661197703302e-13 	101324.9999999925
1.077327327327327 	300.0000000000042 	6.986714029698182e-14 	101324.9999999923
1.079829829829829 	300.0000000000174 	9.471812052010101e-13 	101324.9999999923
1.082332332332332 	299.9999999999998 	1.640309977816858e-12 	101324.9999999926
1.084834834834834 	299.9999999999828 	1.915089139685802e-12 	101324.9999999928
1.087337337337337 	299.9999999999538 	3.216827441414013e-12 	101324.9999999931
1.089839839839839 	299.9999999999516 	3.044386981507451e-12 	101324.9999999934
1.092342342342342 	299.9999999999748 	3.144545984203903e-12 	101324.9999999933
1.094844844844844 	299.999999999983 	3.072986171910184e-12 	101324.9999999933
1.097347347347347 	299.999999999964 	2.967554990854726e-12 	101324.9999999933
1.099849849849849 	299.9999999999559 	2.697822708110297e-12 	101324.9999999932
1.102352352352352 	299.9999999999637 	1.726541634241665e-12 	101324.9999999929
1.104854854854854 	299.9999999999751 	1.358688687203579e-12 	101324.9999999927
1.107357357357357 	299.9999999999716 	7.140657066544989e-13 	101324.9999999926
1.109859859859859 	299.9999999999559 	1.568622665246432e-12 	101324.9999999924
1.112362362362362 	300.0000000000024 	1.042038688404338e-12 	101324.9999999923
1.114864864864865 	300.000000000004 	9.677655270788106e-13 	101324.9999999924
1.117367367367367 	299.9999999999736 	1.613491019732095e-12 	101324.9999999925
1.119869869869869 	299.9999999999478 	1.132717246893628e-12 	101324.9999999925
1.122372372372372 	299.9999999999569 	7.382794926159368e-13 	101324.9999999926
1.124874874874874 	299.9999999999562 	4.325765322567693e-13 	101324.9999999928
1.127377377377377 	299.9999999999743 	2.578858662044055e-13 	101324.9999999929
1.129879879879879 	300.0000000000171 	5.357817816868578e-13 	101324.9999999928
1.132382382382382 	300.0000000000175 	5.320851429490131e-13 	101324.9999999927
1.134884884884884 	299.9999999999995 	1.442031754735961e-12 	101324.9999999926
1.137387387387387 	300.000000000006 	1.468822985654115e-12 	101324.9999999927
1.139889889889889 	299.9999999999666 	1.606214786573821e-12 	101324.999999993
1.142392392392392 	299.99999999996 	2.177055608965449e-12 	101324.9999999932
1.144894894894894 	299.9999999999953 	1.326208322372112e-12 	101324.9999999932
1.147397397397397 	299.9999999999838 	1.727476331348508e-12 	101324.9999999932
1.149899899899899 	299.9999999999478 	1.413941479553477e-12 	101324.9999999929
1.152402402402402 	299.9999999999424 	1.95322884015537e-12 	101324.9999999925
1.154904904904904 	299.9999999999691 	1.847914746802799e-12 	101324.9999999923
1.157407407407407 	299.999999999975 	1.797580799451713e-12 	101324.9999999923
1.159909909909909 	299.9999999999553 	2.127588024435729e-12 	101324.9999999924
1.162412412412412 	299.9999999999441 	1.318592609670488e-12 	101324.9999999924
1.164914914914914 	299.9999999999591 	6.828147007773915e-13 	101324.9999999925
1.167417417417417 	299.9999999999594 	5.264119361049483e-13 	101324.9999999926
1.169919919919919 	299.9999999999914 	1.139781393942773e-12 	101324.9999999927
1.172422422422422 	300.0000000000125 	1.024347267533998e-12 	101324.9999999927
1.174924924924925 	299.9999999999789 	2.001822994367775e-12 	101324.9999999927
1.177427427427427 	299.9999999999571 	2.21257134285509e-12 	101324.9999999926
1.179929929929929 	299.9999999999908 	2.2460368527953e-12 	101324.9999999925
1.182432432432432 	300.0000000000114 	3.106208066655779e-12 	101324.9999999926
1.184934934934934 	300.0000000000008 	2.627926574596397e-12 	101324.9999999926
1.187437437437437 	299.9999999999871 	3.221395967836114e-12 	101324.9999999925
1.189939939939939 	299.9999999999719 	2.986507183220257e-12 	101324.9999999927
1.192442442442442 	299.9999999999445 	3.353649468503656e-12 	101324.9999999927
1.194944944944944 	299.9999999999466 	2.603874954026204e-12 	101324.9999999925
1.197447447447447 	299.9999999999833 	2.942322030138e-12 	101324.9999999925
1.199949949949949 	299.9999999999905 	2.922206675834547e-12 	101324.9999999925
1.202452452452452 	299.9999999999565 	2.380361091950382e-12 	101324.9999999923
1.204954954954955 	299.999999999955 	3.10214365620631e-12 	101324.9999999923
1.207457457457457 	299.9999999999723 	3.031394451441635e-12 	101324.9999999923
1.20995995995996 	299.9999999999679 	3.949083494829862e-12 	101324.9999999921
1.212462462462462 	299.9999999999779 	3.277018701075071e-12 	101324.9999999921
1.214964964964964 	299.9999999999827 	3.593701378737399e-12 	101324.9999999921
1.217467467467467 	299.9999999999949 	2.897812652420677e-12 	101324.9999999921
1.219969969969969 	299.9999999999812 	3.22180214666377e-12 	101324.9999999921
1.222472472472472 	300.0000000000024 	2.806770670190692e-12 	101324.9999999921
1.224974974974975 	300.0000000000279 	2.978839636791912e-12 	101324.999999992
1.227477477477477 	299.9999999999951 	4.20980148952826e-12 	101324.9999999921
1.229979979979979 	299.9999999999816 	3.739349542351078e-12 	101324.9999999924
1.232482482482482 	299.9999999999619 	4.454362950886826e-12 	101324.9999999923
1.234984984984984 	299.9999999999619 	3.339137413253453e-12 	101324.9999999923
1.237487487487487 	299.9999999999733 	4.404883347854277e-12 	101324.9999999923
1.239989989989989 	299.9999999999746 	4.343171536311423e-12 	101324.9999999921
1.242492492492492 	299.9999999999977 	3.882232695819079e-12 	101324.999999992
1.244994994994994 	299.9999999999851 	4.532920916888746e-12 	101324.9999999921
1.247497497497497 	299.9999999999984 	3.992142369548553e-12 	101324.9999999922
1.249999999999999 	300.0000000000247 	4.878579291746778e-12 	101324.9999999923
