-1.25 	300 	0.1034853052090248 	101282.7836037249
-1.247497497497497 	299.9634622367178 	0.1025793056571958 	101283.1476854309
-1.244994994994995 	299.964893958005 	0.1015396184285432 	101283.5229234905
-1.242492492492492 	299.9652344414303 	0.1007884266976528 	101283.9057386806
-1.23998998998999 	299.9655644515902 	0.0997320823048026 	101284.2965693708
-1.237487487487487 	299.9659012670597 	0.09879538218423736 	101284.6946703831
-1.234984984984985 	299.9662440510783 	0.09780029596234285 	101285.0998030621
-1.232482482482482 	299.966593320259 	0.09678498751707952 	101285.5126004436
-1.22997997997998 	299.9669487405523 	0.09575399720475572 	101285.9326690726
-1.227477477477477 	299.9673103653475 	0.09470864808678803 	101286.3600721159
-1.224974974974975 	299.9676780986703 	0.09364546771382266 	101286.7946959029
-1.222472472472472 	299.96805135951 	0.09256293669924323 	101287.2358537622
-1.21996996996997 	299.9684306047864 	0.09146000131415943 	101287.6840854698
-1.217467467467467 	299.9688160064011 	0.09034073806275349 	101288.1395940945
-1.214964964964965 	299.9692070235801 	0.0892132049994934 	101288.6017421356
-1.212462462462462 	299.9696034049678 	0.08806770341306586 	101289.0702316856
-1.20995995995996 	299.9700053895776 	0.0869025291394513 	101289.5453448826
-1.207457457457457 	299.9704130011196 	0.0857177183062816 	101290.0271098974
-1.204954954954955 	299.9708262735409 	0.08451703364869716 	101290.5155669494
-1.202452452452452 	299.9712452266231 	0.08330814975652315 	101291.0107404013
-1.19994994994995 	299.9716689694728 	0.08208234372649925 	101291.5115762337
-1.197447447447447 	299.9720977825496 	0.08083860030371726 	101292.0184058776
-1.194944944944945 	299.9725321429394 	0.07957724147155838 	101292.531793356
-1.192442442442442 	299.9729713309486 	0.07830250184740617 	101293.0508885016
-1.18993993993994 	299.9734153767698 	0.0770207863733213 	101293.5757282818
-1.187437437437437 	299.9738642547181 	0.0757232245596979 	101294.1062813413
-1.184934934934935 	299.9743177360426 	0.07440880096667599 	101294.6422770174
-1.182432432432432 	299.9747765197985 	0.0730787433074007 	101295.184541319
-1.17992992992993 	299.9752403378416 	0.07173482652049465 	101295.7327574194
-1.177427427427427 	299.9757080563031 	0.07038011227083919 	101296.2855869358
-1.174924924924925 	299.9761801710943 	0.06901092130467773 	101296.8436149243
-1.172422422422422 	299.9766570625354 	0.06762919772934946 	101297.4072890105
-1.16991991991992 	299.977137980453 	0.06623602154163566 	101297.9757232521
-1.167417417417417 	299.9776231676543 	0.06483103858487196 	101298.5492072184
-1.164914914914915 	299.9781127127871 	0.06341478721768164 	101299.1278473865
-1.162412412412412 	299.9786054100594 	0.06198688947012397 	101299.7102168219
-1.15990990990991 	299.9791020835521 	0.06054845468532802 	101300.2972862977
-1.157407407407407 	299.9796041233862 	0.05909660145120918 	101300.890696542
-1.154904904904904 	299.9801095425543 	0.05763230512520706 	101301.4881009765
-1.152402402402403 	299.9806169555804 	0.05615830026781303 	101302.0878679306
-1.1498998998999 	299.9811284374521 	0.05467301895153961 	101302.6924532764
-1.147397397397397 	299.9816448879457 	0.05317771927491247 	101303.3029176179
-1.144894894894895 	299.982164427052 	0.0516753180746353 	101303.9170334316
-1.142392392392392 	299.9826856730048 	0.05016670463588364 	101304.5331651293
-1.13988988988989 	299.983209829611 	0.04864564801168619 	101305.1527340404
-1.137387387387387 	299.9837390181126 	0.04711187779100927 	101305.7782459641
-1.134884884884885 	299.9842720452958 	0.04557308846781466 	101306.4082941838
-1.132382382382382 	299.9848059353816 	0.04402791014340331 	101307.0393659565
-1.12987987987988 	299.9853414559132 	0.04247366324071507 	101307.672370523
-1.127377377377377 	299.9858806683036 	0.04090730461766433 	101308.3097447429
-1.124874874874875 	299.9864232454162 	0.03933108845292352 	101308.951101176
-1.122372372372372 	299.9869694372679 	0.03775216780454787 	101309.5967347196
-1.11986986986987 	299.9875182994374 	0.03616711558071849 	101310.2455297295
-1.117367367367367 	299.9880674203145 	0.03457519563610793 	101310.8946343461
-1.114864864864865 	299.9886171176785 	0.03297744539944326 	101311.5444232508
-1.112362362362362 	299.9891688890912 	0.03137813560525694 	101312.1966679982
-1.10985985985986 	299.9897234063001 	0.02977616848564119 	101312.8521643252
-1.107357357357357 	299.9902829168828 	0.02815815972526777 	101313.5135663655
-1.104854854854855 	299.9908467856399 	0.02652460329351417 	101314.1801221233
-1.102352352352353 	299.9914114037092 	0.02488325627819348 	101314.8475637152
-1.09984984984985 	299.991973909694 	0.02325103831586521 	101315.5125092167
-1.097347347347347 	299.9925333195 	0.02163617030674636 	101316.1737995737
-1.094844844844845 	299.9930908878632 	0.02002024854592085 	101316.8329197936
-1.092342342342342 	299.993652635375 	0.0183906462564729 	101317.4969852883
-1.08983983983984 	299.9942220998728 	0.01673951064332105 	101318.1701772455
-1.087337337337337 	299.9947981277882 	0.01507096862868278 	101318.8511290841
-1.084834834834835 	299.9953767681164 	0.01339993344005234 	101319.5351694815
-1.082332332332332 	299.9959537205667 	0.01173121557587446 	101320.2172159941
-1.07982982982983 	299.9965261546211 	0.01007079583571546 	101320.8939233381
-1.077327327327327 	299.9970946190389 	0.008422410828461862 	101321.5659407809
-1.074824824824825 	299.9976594787628 	0.006785646517183296 	101322.2337013925
-1.072322322322323 	299.998222311969 	0.005154520143625487 	101322.899071882
-1.06981981981982 	299.9987871171181 	0.003517086673918353 	101323.5667786903
-1.067317317317317 	299.9993572357201 	0.001865748622889522 	101324.2407715425
-1.064814814814815 	299.9999330797375 	0.000787198425952239 	101324.9215346464
-1.062312312312312 	300.0005112201677 	0.001473463694251292 	101325.6050131755
-1.05980980980981 	300.0010886113854 	0.003145711854792971 	101326.2876082763
-1.057307307307307 	300.0016645933138 	0.004814277665435883 	101326.9685404846
-1.054804804804805 	300.0022393304064 	0.006479285827863284 	101327.648004326
-1.052302302302302 	300.002813024758 	0.008141266358168519 	101328.3262387338
-1.0497997997998 	300.003385804691 	0.009800581506605153 	101329.0033954971
-1.047297297297297 	300.0039577207209 	0.01145737940801096 	101329.6795340236
-1.044794794794795 	300.0045287641137 	0.01311163950378732 	101330.3546438186
-1.042292292292292 	300.005098886366 	0.01476322572556116 	101331.0286679325
-1.03978978978979 	300.0056680150797 	0.01641193115187588 	101331.7015208563
-1.037287287287287 	300.0062360644294 	0.01805750755758948 	101332.3731005212
-1.034784784784785 	300.0068029405649 	0.01969968261677372 	101333.0432956801
-1.032282282282283 	300.0073685445444 	0.02133817214142713 	101333.7119901535
-1.02977977977978 	300.0079327755375 	0.02297268583605899 	101334.3790652219
-1.027277277277277 	300.0084955330835 	0.02460292911069021 	101335.0444009106
-1.024774774774775 	300.0090567158678 	0.02622860667002203 	101335.7078766965
-1.022272272272272 	300.0096162206934 	0.02784942341911504 	101336.3693718898
-1.01976976976977 	300.0101739443816 	0.02946508308926422 	101337.0287657968
-1.017267267267267 	300.0107297862547 	0.03107529017500082 	101337.6859378865
-1.014764764764765 	300.011283646652 	0.03267975058996692 	101338.3407679037
-1.012262262262262 	300.0118354230343 	0.03427817017237553 	101338.9931359413
-1.00975975975976 	300.012385011367 	0.03587025614051152 	101339.6429225106
-1.007257257257257 	300.0129323109734 	0.03745571718306759 	101340.2900084977
-1.004754754754755 	300.0134772254057 	0.03903426213576488 	101340.9342752101
-1.002252252252252 	300.0140196570446 	0.04060560136193546 	101341.5756044593
-0.9997497497497498 	300.0145595026452 	0.04216944708102494 	101342.213878558
-0.9972472472472473 	300.0150966578676 	0.04372551218897389 	101342.8489804182
-0.9947447447447449 	300.0156310250911 	0.0452735113565612 	101343.4807935623
-0.9922422422422421 	300.0161625136661 	0.04681316102897128 	101344.109202068
-0.9897397397397399 	300.0166910307883 	0.04834417833490337 	101344.7340906187
-0.9872372372372376 	300.017216474348 	0.04986628245834993 	101345.3553444916
-0.9847347347347346 	300.017738738322 	0.05137919449302515 	101345.9728496338
-0.9822322322322323 	300.0182577239987 	0.05288263642897597 	101346.5864927488
-0.9797297297297296 	300.0187733445932 	0.05437633256366096 	101347.1961612136
-0.9772272272272275 	300.0192855170084 	0.05586000948394501 	101347.801743159
-0.9747247247247248 	300.0197941490398 	0.05733339459233914 	101348.403127487
-0.9722222222222224 	300.0202991367385 	0.05879621749736995 	101349.0002037901
-0.9697197197197196 	300.0208003743987 	0.06024821047020057 	101349.5928625115
-0.9672172172172175 	300.0212977673669 	0.06168910699601286 	101350.1809949394
-0.9647147147147147 	300.0217912352553 	0.06311864271361771 	101350.7644931435
-0.9622122122122124 	300.0222807027462 	0.06453655585496831 	101351.3432501284
-0.9597097097097099 	300.0227660865724 	0.06594258630470541 	101351.9171597113
-0.9572072072072073 	300.0232472895036 	0.06733647612044893 	101352.4861164746
-0.9547047047047047 	300.0237242073985 	0.06871796957260422 	101353.0500159586
-0.9522022022022023 	300.0241967407285 	0.07008681278062172 	101353.6087545668
-0.9496996996996998 	300.024664803524 	0.07144275475514057 	101354.1622296572
-0.9471971971971973 	300.0251283226136 	0.07278554681031962 	101354.7103396708
-0.9446946946946947 	300.0255872285586 	0.07411494186105577 	101355.2529838338
-0.9421921921921923 	300.0260414463245 	0.07543069616194886 	101355.7900623518
-0.93968968968969 	300.0264908897939 	0.07673256874236406 	101356.3214767381
-0.9371871871871872 	300.0269354641442 	0.07802032043949304 	101356.8471295069
-0.9346846846846848 	300.0273750734797 	0.07929371525694057 	101357.366924191
-0.9321821821821823 	300.0278096275869 	0.08055251995789045 	101357.8807654622
-0.9296796796796799 	300.0282390454535 	0.0817965033245277 	101358.3885588798
-0.9271771771771771 	300.0286632549335 	0.08302543740135655 	101358.890211241
-0.9246746746746748 	300.0290821899336 	0.08423909729613428 	101359.3856307732
-0.9221721721721724 	300.0294957858083 	0.08543726036328303 	101359.8747265695
-0.9196696696696698 	300.0299039747655 	0.08661970712634287 	101360.357408807
-0.9171671671671672 	300.0303066845698 	0.08778622092430498 	101360.833589068
-0.9146646646646649 	300.0307038384508 	0.08893658769591442 	101361.3031798423
-0.9121621621621623 	300.031095357596 	0.09007059670063905 	101361.7660948315
-0.9096596596596597 	300.0314811643377 	0.09118804016194744 	101362.2222493805
-0.9071571571571573 	300.0318611825807 	0.09228871332710942 	101362.6715598234
-0.9046546546546547 	300.0322353385881 	0.09337241459249025 	101363.1139435649
-0.9021521521521524 	300.0326035613798 	0.09443894504247322 	101363.5493195676
-0.8996496496496498 	300.0329657823618 	0.09548810868225227 	101363.9776077227
-0.8971471471471473 	300.0333219348531 	0.09651971288564723 	101364.3987290512
-0.894644644644645 	300.0336719542926 	0.09753356871860747 	101364.8126066074
-0.892142142142142 	300.0340157778597 	0.0985294909103772 	101365.2191647479
-0.8896396396396397 	300.0343533432927 	0.09950729683924629 	101365.6183285991
-0.8871371371371374 	300.0346845895984 	0.100466806809879 	101366.0100249089
-0.8846346346346349 	300.0350094570628 	0.1014078447108571 	101366.3941817614
-0.8821321321321324 	300.0353278861884 	0.1023302371522573 	101366.7707280678
-0.8796296296296297 	300.0356398190993 	0.1032338145480422 	101367.1395946238
-0.8771271271271271 	300.0359451992656 	0.104118411951555 	101367.5007141532
-0.8746246246246248 	300.0362439708466 	0.1049838670641257 	101367.854020151
-0.8721221221221224 	300.0365360789788 	0.105830020550113 	101368.1994474975
-0.8696196196196196 	300.0368214705196 	0.1066567180713373 	101368.5369332536
-0.8671171171171175 	300.0371000934552 	0.107463808147649 	101368.8664155431
-0.8646146146146148 	300.0373718960154 	0.1082511416648249 	101369.1878332667
-0.8621121121121121 	300.0376368283783 	0.1090185737925978 	101369.5011272236
-0.8596096096096097 	300.0378948419232 	0.1097659631286731 	101369.8062398172
-0.857107107107107 	300.0381458884781 	0.110493171261658 	101370.1031143073
-0.8546046046046049 	300.0383899219343 	0.1112000642172791 	101370.3916957752
-0.8521021021021022 	300.0386268978944 	0.1118865130394776 	101370.6719318252
-0.8495995995995997 	300.0388567732471 	0.1125523928822024 	101370.943771463
-0.8470970970970974 	300.039079505529 	0.1131975811977244 	101371.2071643356
-0.8445945945945946 	300.0392950535532 	0.1138219586050878 	101371.4620617213
-0.8420920920920922 	300.0395033782478 	0.1144254111715714 	101371.7084172034
-0.8395895895895897 	300.0397044410443 	0.1150078280904669 	101371.9461854471
-0.8370870870870872 	300.039898204294 	0.1155691003489563 	101372.1753217295
-0.8345845845845846 	300.0400846325873 	0.1161091254798507 	101372.3957840874
-0.8320820820820823 	300.0402636927903 	0.1166278068228735 	101372.6075334474
-0.8295795795795798 	300.0404353515444 	0.1171250470435193 	101372.8105300902
-0.8270770770770772 	300.0405995750893 	0.117600750628064 	101373.0047342097
-0.8245745745745746 	300.0407563339569 	0.1180548316366536 	101373.1901109014
-0.8220720720720721 	300.0409056010823 	0.1184872092536535 	101373.3666280907
-0.8195695695695699 	300.0410473466413 	0.1188977990191884 	101373.5342505088
-0.817067067067067 	300.0411815423362 	0.1192865214717308 	101373.6929446559
-0.8145645645645651 	300.0413081670786 	0.1196533124388673 	101373.842685613
-0.8120620620620621 	300.0414271996574 	0.1199981075773477 	101373.9834480952
-0.8095595595595597 	300.0415386124048 	0.1203208318418928 	101374.1151995059
-0.8070570570570572 	300.0416423830719 	0.1206214235669351 	101374.2379136251
-0.8045545545545546 	300.0417385001434 	0.1208998419378246 	101374.3515765459
-0.8020520520520523 	300.0418269457872 	0.1211560336701404 	101374.4561672849
-0.7995495495495494 	300.0419076932034 	0.1213899306490892 	101374.5516540864
-0.7970470470470474 	300.0419807283797 	0.1216014931491743 	101374.6380204476
-0.7945445445445446 	300.0420460505094 	0.1217907064700557 	101374.7152653908
-0.7920420420420423 	300.0421036437054 	0.1219575258236844 	101374.7833700115
-0.7895395395395397 	300.0421534807207 	0.1221018881132169 	101374.8423022104
-0.7870370370370371 	300.0421955591412 	0.1222237824504538 	101374.8920590336
-0.7845345345345348 	300.0422298920361 	0.1223232275995192 	101374.9326559436
-0.7820320320320323 	300.0422564632606 	0.1224001821895146 	101374.9640738456
-0.7795295295295296 	300.0422752418482 	0.1224545798891837 	101374.986276143
-0.7770270270270272 	300.0422862373595 	0.1224864402160069 	101374.9992741338
-0.7745245245245247 	300.0422894802043 	0.1224958198109205 	101375.0031031854
-0.7720220220220222 	300.0422849506137 	0.1224826734001041 	101374.9977404991
-0.7695195195195199 	300.0422726054156 	0.1224469171452932 	101374.983136037
-0.767017017017017 	300.0422524686244 	0.1223886056137184 	101374.9593169099
-0.7645145145145147 	300.0422245977497 	0.1223078605720207 	101374.9263511101
-0.7620120120120122 	300.0421889766559 	0.1222046466596839 	101374.8842198092
-0.7595095095095097 	300.0421455430834 	0.1220788393762165 	101374.8328494511
-0.7570070070070072 	300.0420943231684 	0.1219305070461309 	101374.7722710124
-0.7545045045045048 	300.0420354139682 	0.1217598594807734 	101374.7025992276
-0.7520020020020022 	300.0419688161301 	0.1215668948877401 	101374.6238348575
-0.7494994994994997 	300.0418944305397 	0.1213514106806974 	101374.5358604199
-0.7469969969969972 	300.0418122608379 	0.1211134383981882 	101374.4386805542
-0.7444944944944945 	300.0417224565933 	0.1208533139965433 	101374.3324724035
-0.7419919919919924 	300.0416250758499 	0.1205711589773462 	101374.2173044591
-0.7394894894894897 	300.0415199797509 	0.1202666766825867 	101374.0930123541
-0.7369869869869872 	300.0414070944146 	0.1199397358818343 	101373.9595085579
-0.7344844844844846 	300.0412866062277 	0.1195907734709361 	101373.8170137572
-0.7319819819819822 	300.041158701802 	0.1192202005152443 	101373.665748649
-0.7294794794794797 	300.0410232532087 	0.1188277324805464 	101373.5055622568
-0.7269769769769773 	300.0408800308271 	0.118412889900097 	101373.3361829953
-0.7244744744744747 	300.0407291527379 	0.1179759809632115 	101373.1577504782
-0.721971971971972 	300.0405709927898 	0.1175178542205159 	101372.9707064749
-0.7194694694694695 	300.0404056072063 	0.1170386178596071 	101372.775117202
-0.7169669669669674 	300.0402326148522 	0.1165374225027794 	101372.5705324991
-0.7144644644644647 	300.0400518313914 	0.1160139081396705 	101372.3567349769
-0.711961961961962 	300.0398636898919 	0.1154691047196136 	101372.1342370396
-0.7094594594594597 	300.0396686812329 	0.1149041179527311 	101371.9036185183
-0.7069569569569573 	300.0394665861705 	0.1143184185607251 	101371.664619204
-0.7044544544544545 	300.0392567543399 	0.1137105499056217 	101371.4164701417
-0.7019519519519523 	300.0390391566884 	0.1130805352765941 	101371.1591381618
-0.6994494494494495 	300.0388146234773 	0.112430342338149 	101370.8936058961
-0.6969469469469471 	300.0385837388829 	0.1117612897206762 	101370.620563716
-0.6944444444444446 	300.0383459225622 	0.1110719870265478 	101370.3393245319
-0.6919419419419421 	300.0381001758452 	0.1103601541157337 	101370.0487070254
-0.6894394394394396 	300.0378466153331 	0.1096261785394368 	101369.748849846
-0.6869369369369374 	300.0375865819782 	0.1088732612074145 	101369.441338752
-0.6844344344344344 	300.0373209271105 	0.1081033468650683 	101369.1271802401
-0.6819319319319321 	300.0370487277911 	0.1073141869483585 	101368.8052828289
-0.6794294294294296 	300.0367683739083 	0.1065020217235255 	101368.4737432814
-0.6769269269269272 	300.0364798268413 	0.1056669181951586 	101368.1325172564
-0.6744244244244245 	300.0361850282229 	0.1048136051122173 	101367.7839006698
-0.6719219219219222 	300.0358856188407 	0.1039459443174845 	101367.429832082
-0.6694194194194195 	300.0355807143015 	0.1030616853656512 	101367.0692635933
-0.6669169169169172 	300.0352677434502 	0.1021546375957379 	101366.6991551072
-0.6644144144144146 	300.0349456496011 	0.1012224218733445 	101366.31825971
-0.661911911911912 	300.0346165862844 	0.1002704360242593 	101365.9291261272
-0.6594094094094097 	300.0342837402841 	0.09930642868337364 	101365.5355225745
-0.656906906906907 	300.0339475548488 	0.09833132291497146 	101365.1379710331
-0.6544044044044046 	300.0336048453435 	0.09733721984212911 	101364.7327040555
-0.6519019019019021 	300.0332522130283 	0.09631588540636554 	101364.3157037889
-0.6493993993993996 	300.0328901468864 	0.09526876742193377 	101363.8875508432
-0.6468968968968971 	300.0325230631846 	0.09420691511548483 	101363.4534680674
-0.6443943943943946 	300.0321548228368 	0.09313980001400562 	101363.0180184155
-0.6418918918918921 	300.0317843719772 	0.09206459205179664 	101362.5799521458
-0.6393893893893897 	300.0314063679824 	0.09096789543568594 	101362.1329511703
-0.6368868868868871 	300.0310165469393 	0.08983922355791507 	101361.6719769612
-0.6343843843843846 	300.0306164817257 	0.08868280541985607 	101361.1988939684
-0.6318818818818821 	300.030212672905 	0.08751512932018819 	101360.7213906738
-0.6293793793793795 	300.0298104780659 	0.0863495907870761 	101360.2457991069
-0.6268768768768773 	300.0294086637844 	0.0851828300824588 	101359.7706551256
-0.6243743743743745 	300.0289999525564 	0.08399646115257302 	101359.2874391014
-0.6218718718718721 	300.028577759724 	0.08277355952262411 	101358.7882194851
-0.6193693693693696 	300.028142397335 	0.08151512812999351 	101358.2733285532
-0.6168668668668671 	300.0277014446123 	0.08024110054967534 	101357.7518911567
-0.6143643643643645 	300.0272637612398 	0.07897409435108697 	101357.2343509934
-0.6118618618618621 	300.0268315998988 	0.07771963136816251 	101356.7233399095
-0.6093593593593596 	300.0263981901803 	0.07646005599919364 	101356.210848011
-0.6068568568568571 	300.0259529329726 	0.07516796976202735 	101355.6843435223
-0.6043543543543546 	300.0254900525401 	0.07382862610539502 	101355.1370027823
-0.6018518518518521 	300.0250137325695 	0.07245317108105583 	101354.573778845
-0.5993493493493496 	300.0245354926428 	0.07107174397246195 	101354.0082946778
-0.5968468468468471 	300.0240656862268 	0.06971131142889588 	101353.4527880604
-0.5943443443443446 	300.0236055830919 	0.06837500626972903 	101352.908753162
-0.591841841841842 	300.0231459964075 	0.06703854824853227 	101352.3653225018
-0.5893393393393397 	300.022673488053 	0.06566656684679431 	101351.8066076263
-0.5868368368368371 	300.0221797631977 	0.0642373550637471 	101351.2228072151
-0.5843343343343346 	300.0216677380636 	0.06275885928261739 	101350.6173773379
-0.5818318318318321 	300.0211501293562 	0.0612649255508507 	101350.0053580287
-0.5793293293293297 	300.0206415040715 	0.0597942528923694 	101349.4039705645
-0.5768268268268271 	300.0201490339096 	0.05836584250537116 	101348.8216869831
-0.5743243243243245 	300.0196678379939 	0.05696653373548585 	101348.2527285414
-0.5718218218218221 	300.0191836436193 	0.05555803976842219 	101347.6802162669
-0.5693193193193196 	300.0186809762566 	0.05409887350644063 	101347.0858565041
-0.5668168168168171 	300.0181520446939 	0.05256822840825975 	101346.4604452015
-0.5643143143143147 	300.0176013542321 	0.0509784068903712 	101345.809317435
-0.5618118118118121 	300.0170436164818 	0.04936922665148995 	101345.1498718267
-0.5593093093093094 	300.0164962482414 	0.04778784134624224 	101344.5026995639
-0.5568068068068072 	300.0159705808687 	0.04626497676612265 	101343.8811912149
-0.5543043043043046 	300.0154662819381 	0.04479969781331235 	101343.2849450306
-0.551801801801802 	300.0149714767598 	0.04335957869547158 	101342.6999150209
-0.5492992992992995 	300.0144681112945 	0.04189523308121935 	101342.104753995
-0.5467967967967969 	300.0139398392889 	0.04036190319097553 	101341.4801399243
-0.5442942942942947 	300.0133789797729 	0.03873859290467363 	101340.8169994607
-0.5417917917917919 	300.0127897798244 	0.03703707906541122 	101340.1203624058
-0.5392892892892895 	300.0121868727938 	0.03529773062813228 	101339.4075353293
-0.536786786786787 	300.0115897865271 	0.03357448168483592 	101338.7016066181
-0.5342842842842846 	300.0110158702189 	0.03191539552848134 	101338.0230840649
-0.531781781781782 	300.0104744020042 	0.0303462833450961 	101337.3829297264
-0.5292792792792794 	300.0099637422204 	0.02886265256250393 	101336.7791970338
-0.526776776776777 	300.0094720761298 	0.02743159911489565 	101336.1979115686
-0.5242742742742745 	300.0089810581176 	0.02600179349171574 	101335.6173809262
-0.521771771771772 	300.0084708556165 	0.02451757200693092 	101335.0141588015
-0.5192692692692695 	300.0079251075443 	0.02293292402820495 	101334.3689065532
-0.516766766766767 	300.0073346831072 	0.02122215121584774 	101333.6708353895
-0.5142642642642645 	300.0066995888376 	0.01938530892388959 	101332.9199605105
-0.511761761761762 	300.0060288484198 	0.01744790624870899 	101332.1269564108
-0.5092592592592596 	300.0053385949838 	0.01545555960895392 	101331.3109007371
-0.506756756756757 	300.0046489547323 	0.01346525215194209 	101330.4955892058
-0.5042542542542544 	300.0039805186076 	0.01153552245659295 	101329.7053638293
-0.5017517517517521 	300.0033513710754 	0.009718166364632326 	101328.9616016653
-0.4992492492492494 	300.0027753594645 	0.008053113325680879 	101328.2806693086
-0.496746746746747 	300.0022614606588 	0.006566434959866321 	101327.6731750803
-0.4942442442442445 	300.0018139117067 	0.005270624262722832 	101327.1441240169
-0.4917417417417421 	300.0014328378575 	0.004166337870001417 	101326.6936607479
-0.4892392392392395 	300.0011151466011 	0.003244926660852627 	101326.3181267702
-0.486736736736737 	300.0008554987272 	0.00249120831288409 	101326.011208337
-0.4842342342342345 	300.0006472208872 	0.001886088229337349 	101325.7650152501
-0.481731731731732 	300.0004830784805 	0.001408788917907211 	101325.570994076
-0.4792292292292296 	300.0003558708519 	0.001038577471625855 	101325.4206326016
-0.4767267267267268 	300.000258848511 	0.0007559784824644219 	101325.3059518401
-0.4742242242242246 	300.0001859679079 	0.0005435222943737062 	101325.2198073492
-0.471721721721722 	300.0001320141906 	0.0003861126660761187 	101325.1560349731
-0.4692192192192195 	300.0000926269265 	0.0002711082113232847 	101325.1094802244
-0.4667167167167169 	300.000064257363 	0.0001882082791443124 	101325.0759484632
-0.4642142142142145 	300.0000440866905 	0.0001292201809795765 	101325.052107489
-0.461711711711712 	300.0000299233945 	8.776854314042796e-05 	101325.0353671869
-0.4592092092092094 	300.0000200977813 	5.899010558116684e-05 	101325.0237539044
-0.456706706706707 	300.0000133607173 	3.924281135440081e-05 	101325.0157911018
-0.4542042042042045 	300.0000087932681 	2.584548948271654e-05 	101325.0103928811
-0.451701701701702 	300.0000057308633 	1.685586937314278e-05 	101325.0067733487
-0.4491991991991995 	300.0000036993419 	1.088809768245338e-05 	101325.0043722773
-0.4466966966966969 	300.0000023656485 	6.967485164635417e-06 	101325.0027959991
-0.4441941941941945 	300.0000014990015 	4.41780611450222e-06 	101325.0017716392
-0.441691691691692 	300.0000009412648 	2.776036988006009e-06 	101325.0011125061
-0.4391891891891895 	300.0000005858935 	1.72904318627573e-06 	101325.0006924593
-0.436686686686687 	300.000000361513 	1.067642880555939e-06 	101325.0004272907
-0.4341841841841846 	300.0000002212067 	6.536542496480333e-07 	101325.0002614323
-0.431681681681682 	300.0000001341626 	3.968730444903742e-07 	101325.0001586233
-0.4291791791791794 	300.0000000806705 	2.38991936868697e-07 	101325.0000954571
-0.426676676676677 	300.0000000481229 	1.427683452944921e-07 	101325.0000569823
-0.4241741741741744 	300.0000000285226 	8.4609101814637e-08 	101325.0000337453
-0.421671671671672 	300.0000000167923 	4.975746587525419e-08 	101325.0000198277
-0.4191691691691694 	300.0000000098482 	2.903541794232727e-08 	101325.0000115598
-0.4166666666666669 	300.0000000057381 	1.682052232596259e-08 	101325.0000066873
-0.4141641641641645 	300.0000000031766 	9.669955909738966e-09 	101325.0000038382
-0.411661661661662 	300.0000000018662 	5.521582772749828e-09 	101325.0000021846
-0.4091591591591594 	300.0000000010508 	3.128828964747126e-09 	101325.0000012328
-0.406656656656657 	300.0000000005122 	1.762064301226993e-09 	101325.0000006887
-0.4041541541541545 	300.0000000003482 	9.824969065007844e-10 	101325.00000038
-0.401651651651652 	300.0000000000888 	5.476483324947289e-10 	101325.0000002062
-0.3991491491491494 	300.0000000000956 	2.978129731755358e-10 	101325.000000109
-0.396646646646647 	300.0000000000048 	1.660584110345989e-10 	101325.0000000552
-0.3941441441441444 	300.0000000000063 	8.654280745863871e-11 	101325.0000000256
-0.3916416416416419 	299.999999999934 	5.037615094947784e-11 	101325.0000000094
-0.3891391391391395 	299.9999999999619 	2.41963094950503e-11 	101325.0000000005
-0.3866366366366368 	299.9999999999553 	1.502020562476861e-11 	101324.9999999956
-0.3841341341341344 	299.9999999999981 	6.481458996388073e-12 	101324.999999993
-0.381631631631632 	299.9999999999495 	4.599255205913818e-12 	101324.9999999917
-0.3791291291291294 	300.0000000000109 	2.102519381747325e-12 	101324.9999999908
-0.3766266266266269 	300.0000000000283 	1.544206907212926e-12 	101324.9999999903
-0.3741241241241244 	300.0000000000298 	1.769602014530918e-12 	101324.9999999899
-0.371621621621622 	300.0000000000156 	4.488507916024268e-13 	101324.9999999896
-0.3691191191191194 	300.0000000000032 	3.27099062129618e-12 	101324.9999999897
-0.366616616616617 	300.0000000000089 	9.779813405494349e-13 	101324.9999999896
-0.3641141141141143 	299.9999999999534 	2.919396725958549e-12 	101324.9999999895
-0.3616116116116119 	299.9999999999352 	1.128353005105258e-12 	101324.9999999897
-0.3591091091091095 	299.9999999999878 	2.639549454048995e-12 	101324.9999999895
-0.356606606606607 	299.9999999999752 	2.291529084169422e-12 	101324.9999999897
-0.3541041041041044 	299.9999999999781 	2.03271787722264e-12 	101324.99999999
-0.3516016016016019 	299.9999999999995 	2.694772477806867e-12 	101324.9999999905
-0.3490990990990994 	299.9999999999822 	6.951020653670315e-13 	101324.9999999904
-0.346596596596597 	300.0000000000521 	2.696794971391101e-12 	101324.9999999906
-0.3440940940940944 	300.0000000000628 	8.549971841876944e-13 	101324.9999999906
-0.3415915915915919 	300.0000000000175 	2.763290146524077e-12 	101324.9999999908
-0.3390890890890895 	299.9999999999732 	8.73064344267313e-13 	101324.999999991
-0.3365865865865869 	300.0000000000249 	3.306467666368908e-12 	101324.999999991
-0.3340840840840844 	300.0000000000081 	2.62165125412732e-12 	101324.9999999908
-0.3315815815815819 	300.0000000000298 	4.48097523834274e-12 	101324.9999999904
-0.3290790790790794 	300.0000000000198 	3.276411845042146e-12 	101324.9999999903
-0.3265765765765769 	299.9999999999184 	4.705220995516411e-12 	101324.9999999905
-0.3240740740740744 	299.9999999999931 	2.144720075312412e-12 	101324.999999991
-0.3215715715715718 	300.000000000006 	3.884824551822227e-12 	101324.999999991
-0.3190690690690695 	299.9999999999141 	1.094277317281813e-12 	101324.9999999907
-0.3165665665665668 	299.9999999999895 	4.388288776454283e-12 	101324.9999999908
-0.3140640640640644 	300.0000000000042 	2.023489696651317e-12 	101324.9999999906
-0.311561561561562 	299.9999999999148 	5.886387251463091e-12 	101324.9999999905
-0.3090590590590593 	299.9999999999928 	1.654604227148742e-12 	101324.9999999903
-0.3065565565565568 	300.0000000000018 	5.645730964365005e-12 	101324.9999999904
-0.3040540540540545 	300.0000000000221 	1.746807986353614e-12 	101324.9999999904
-0.3015515515515518 	300.0000000000412 	6.518826623057447e-12 	101324.9999999907
-0.2990490490490494 	299.9999999999368 	2.549402393391409e-12 	101324.9999999907
-0.2965465465465469 	299.9999999999793 	5.283977108208678e-12 	101324.9999999909
-0.2940440440440444 	300.0000000000007 	2.895811551647059e-12 	101324.9999999909
-0.2915415415415418 	299.9999999999965 	3.835778888396856e-12 	101324.999999991
-0.2890390390390395 	300.0000000000029 	2.883430652311634e-12 	101324.9999999914
-0.2865365365365368 	299.999999999976 	1.789989664933459e-12 	101324.9999999914
-0.2840340340340343 	300.0000000000058 	2.248393828617214e-12 	101324.9999999917
-0.2815315315315318 	299.9999999999187 	5.778571036426614e-13 	101324.9999999918
-0.2790290290290295 	299.9999999999533 	1.79044635559195e-12 	101324.9999999915
-0.2765265265265269 	300.0000000000174 	1.200004781788263e-12 	101324.9999999918
-0.2740240240240244 	300.0000000000417 	1.936455786191395e-12 	101324.9999999918
-0.2715215215215219 	300.0000000000194 	2.088829156486142e-12 	101324.9999999915
-0.2690190190190194 	299.9999999999378 	1.105903250132626e-12 	101324.9999999912
-0.2665165165165169 	299.9999999999947 	1.631624846133583e-12 	101324.9999999909
-0.2640140140140144 	299.999999999962 	7.660882776305715e-13 	101324.9999999905
-0.2615115115115119 	300.0000000000013 	2.480744253926091e-12 	101324.9999999904
-0.2590090090090094 	299.9999999999257 	1.392211099961346e-12 	101324.9999999903
-0.2565065065065068 	299.9999999999969 	2.06072649105865e-12 	101324.9999999905
-0.2540040040040044 	300.000000000002 	2.565444628287854e-12 	101324.9999999904
-0.2515015015015019 	300.0000000000451 	1.497551432989346e-12 	101324.9999999904
-0.2489989989989994 	300.000000000056 	3.689668880399091e-12 	101324.9999999902
-0.2464964964964968 	299.9999999999912 	9.630012522046922e-13 	101324.9999999901
-0.2439939939939944 	299.9999999999974 	4.565764562882564e-12 	101324.9999999905
-0.2414914914914919 	299.9999999999715 	6.924823828381092e-13 	101324.9999999903
-0.2389889889889893 	300.0000000000035 	6.375779747040498e-12 	101324.9999999901
-0.2364864864864869 	300.0000000000235 	3.098192254495589e-12 	101324.9999999905
-0.2339839839839843 	299.9999999999133 	7.388701945237325e-12 	101324.9999999903
-0.2314814814814819 	299.999999999979 	2.865133392515943e-12 	101324.9999999904
-0.2289789789789792 	299.9999999999102 	6.173434471834202e-12 	101324.9999999904
-0.2264764764764769 	299.9999999999396 	3.233071173202478e-12 	101324.9999999906
-0.2239739739739743 	299.9999999999539 	5.61279945947377e-12 	101324.9999999904
-0.2214714714714718 	299.9999999999308 	4.475571914993288e-12 	101324.9999999904
-0.2189689689689693 	299.999999999965 	4.343991033080852e-12 	101324.9999999904
-0.2164664664664669 	299.9999999999753 	4.850790846159031e-12 	101324.9999999901
-0.2139639639639643 	299.9999999999155 	3.849888074358162e-12 	101324.99999999
-0.2114614614614618 	299.9999999999665 	4.243967959768575e-12 	101324.99999999
-0.2089589589589593 	299.9999999999922 	4.266400976864458e-12 	101324.9999999902
-0.2064564564564568 	299.9999999999923 	3.931572915649117e-12 	101324.9999999907
-0.2039539539539543 	299.9999999998934 	4.789485827565803e-12 	101324.9999999908
-0.2014514514514518 	299.9999999999421 	2.563250141489759e-12 	101324.9999999907
-0.1989489489489494 	299.9999999999738 	5.753449364698963e-12 	101324.9999999906
-0.1964464464464468 	299.9999999999975 	2.59575871708892e-12 	101324.9999999907
-0.1939439439439443 	299.9999999999845 	6.409893229783738e-12 	101324.9999999907
-0.1914414414414418 	299.9999999999055 	3.470688930252811e-12 	101324.9999999907
-0.1889389389389393 	300.0000000000087 	5.176742175983005e-12 	101324.9999999906
-0.1864364364364368 	300.0000000000468 	3.750965691310377e-12 	101324.9999999905
-0.1839339339339343 	299.9999999999703 	4.917690794676379e-12 	101324.9999999904
-0.1814314314314318 	299.9999999999944 	3.057309174503588e-12 	101324.9999999905
-0.1789289289289293 	299.9999999998877 	5.452498351230947e-12 	101324.9999999906
-0.1764264264264268 	299.9999999999732 	2.059278287439021e-12 	101324.9999999904
-0.1739239239239243 	299.999999999881 	5.740161300808302e-12 	101324.9999999903
-0.1714214214214218 	299.9999999999879 	1.021882402403276e-12 	101324.9999999902
-0.1689189189189193 	299.9999999999467 	6.630348700032628e-12 	101324.9999999901
-0.1664164164164168 	300.0000000000057 	1.354152537371116e-12 	101324.99999999
-0.1639139139139143 	299.9999999999874 	7.58545214114412e-12 	101324.99999999
-0.1614114114114118 	300.0000000000342 	2.571188066670822e-12 	101324.9999999898
-0.1589089089089093 	299.9999999999979 	9.939384270629553e-12 	101324.9999999895
-0.1564064064064068 	299.9999999999848 	3.195057550483104e-12 	101324.9999999894
-0.1539039039039043 	299.9999999999898 	1.089814629894673e-11 	101324.9999999895
-0.1514014014014018 	300.0000000000242 	2.224239771223118e-12 	101324.9999999897
-0.1488988988988993 	299.9999999999946 	9.326118027336595e-12 	101324.9999999895
-0.1463963963963968 	299.9999999999991 	2.124086469955092e-12 	101324.9999999899
-0.1438938938938943 	299.9999999999442 	7.75996924656065e-12 	101324.9999999899
-0.1413913913913918 	299.999999999913 	1.395852616230046e-12 	101324.9999999901
-0.1388888888888893 	299.9999999999765 	5.047316963545836e-12 	101324.9999999899
-0.1363863863863868 	299.999999999873 	1.11271258673883e-12 	101324.99999999
-0.1338838838838843 	299.9999999999067 	3.604582361242566e-12 	101324.99999999
-0.1313813813813818 	299.9999999999938 	5.692933078853966e-13 	101324.99999999
-0.1288788788788793 	299.9999999999631 	3.001087595653865e-12 	101324.99999999
-0.1263763763763768 	299.999999999969 	1.076837941222885e-12 	101324.9999999899
-0.1238738738738743 	299.9999999999156 	3.037658643454545e-12 	101324.9999999902
-0.1213713713713717 	299.9999999999716 	1.929939009190861e-12 	101324.9999999907
-0.1188688688688693 	300.0000000000014 	4.487642440004901e-12 	101324.9999999905
-0.1163663663663668 	299.9999999998856 	1.11680449799153e-12 	101324.9999999906
-0.1138638638638643 	299.9999999999864 	4.845671175848405e-12 	101324.9999999907
-0.1113613613613618 	299.9999999999843 	1.950715047368533e-12 	101324.9999999905
-0.1088588588588592 	299.999999999972 	5.086816213795221e-12 	101324.9999999905
-0.1063563563563568 	299.9999999999403 	1.518791520349428e-12 	101324.9999999905
-0.1038538538538543 	299.9999999999728 	4.675156368169411e-12 	101324.99999999
-0.1013513513513517 	300.000000000018 	8.26395645345159e-13 	101324.9999999897
-0.09884884884884926 	299.9999999999252 	4.984364895069405e-12 	101324.9999999897
-0.09634634634634676 	299.9999999998776 	1.593869007690028e-12 	101324.9999999894
-0.09384384384384425 	299.9999999999166 	4.043025369708803e-12 	101324.9999999894
-0.09134134134134177 	300.0000000000289 	1.517521398071025e-12 	101324.9999999896
-0.08883883883883925 	300.0000000000034 	3.675948974817626e-12 	101324.9999999894
-0.08633633633633674 	299.9999999999454 	2.238697562507562e-12 	101324.9999999896
-0.08383383383383426 	300.000000000011 	2.826764080835227e-12 	101324.9999999893
-0.08133133133133173 	299.9999999999591 	2.698383382455885e-12 	101324.9999999893
-0.07882882882882926 	299.9999999998685 	2.690701440071623e-12 	101324.9999999892
-0.07632632632632676 	299.9999999999558 	2.079770235410483e-12 	101324.9999999892
-0.07382382382382424 	299.9999999998827 	2.244319549310804e-12 	101324.9999999891
-0.07132132132132173 	300.0000000000185 	1.444239625120855e-12 	101324.999999989
-0.06881881881881925 	299.9999999999557 	1.81918660767702e-12 	101324.9999999888
-0.06631631631631671 	299.9999999998817 	1.822309245472022e-12 	101324.9999999889
-0.06381381381381425 	299.999999999948 	2.414232166131143e-12 	101324.9999999885
-0.06131131131131173 	299.9999999999501 	1.545614695984679e-12 	101324.9999999887
-0.05880880880880923 	299.9999999999059 	1.423726319100555e-12 	101324.999999989
-0.05630630630630672 	299.9999999999629 	1.327511393008031e-12 	101324.9999999893
-0.05380380380380424 	300.000000000016 	1.579834220456019e-12 	101324.9999999897
-0.05130130130130173 	300.0000000000168 	1.540673346839821e-12 	101324.9999999899
-0.04879879879879922 	299.9999999999302 	1.536099771999196e-12 	101324.9999999902
-0.04629629629629672 	299.999999999917 	1.134132460506321e-12 	101324.9999999902
-0.04379379379379422 	299.9999999999045 	1.728229437430462e-12 	101324.9999999901
-0.04129129129129173 	299.9999999999738 	8.970904295110452e-13 	101324.99999999
-0.03878878878878922 	299.9999999999785 	1.5497929757965e-12 	101324.9999999899
-0.03628628628628671 	299.9999999999771 	1.125425417818275e-12 	101324.9999999898
-0.03378378378378422 	299.9999999999097 	1.187936799730952e-12 	101324.9999999899
-0.03128128128128172 	299.9999999999596 	2.589350058714117e-13 	101324.9999999898
-0.02877877877877922 	299.9999999999582 	1.168737183487232e-12 	101324.9999999898
-0.0262762762762767 	299.9999999998872 	6.196832416286424e-13 	101324.9999999895
-0.02377377377377422 	300.000000000023 	8.062846056598152e-13 	101324.9999999894
-0.0212712712712717 	299.9999999998901 	4.142874276029042e-13 	101324.9999999894
-0.01876876876876921 	299.9999999999571 	1.0491398195857e-13 	101324.9999999893
-0.01626626626626671 	300.0000000000185 	1.161903371662003e-12 	101324.9999999891
-0.0137637637637642 	299.9999999999603 	1.230150849070162e-12 	101324.9999999892
-0.0112612612612617 	300.0000000000198 	1.438540698577698e-12 	101324.9999999894
-0.008758758758759198 	299.9999999999924 	1.319950956477142e-12 	101324.9999999892
-0.006256256256256697 	299.999999999867 	1.640294707409591e-12 	101324.9999999894
-0.003753753753754195 	299.9999999999523 	1.613668698546978e-12 	101324.9999999897
-0.001251251251251693 	299.999999999922 	1.761203988410735e-12 	101324.9999999899
0.00125125125125081 	299.9999999999471 	1.060765311579448e-12 	101324.9999999901
0.003753753753753312 	299.9999999999578 	6.658382112489981e-13 	101324.9999999904
0.006256256256255817 	299.9999999998762 	6.24319958120852e-13 	101324.9999999905
0.008758758758758317 	299.9999999999828 	8.393186508143439e-13 	101324.9999999904
0.01126126126126082 	300.0000000000047 	1.320782595823088e-12 	101324.9999999905
0.01376376376376332 	299.9999999999635 	1.390928798001105e-12 	101324.9999999907
0.01626626626626582 	300.0000000000123 	1.269552024470224e-12 	101324.9999999907
0.01876876876876833 	299.9999999999447 	8.997071341494129e-13 	101324.9999999908
0.02127127127127083 	299.9999999999563 	1.408588723305884e-12 	101324.9999999903
0.02377377377377332 	299.9999999999914 	1.185600026855067e-12 	101324.9999999902
0.02627627627627583 	299.9999999998882 	1.520325585605943e-12 	101324.9999999904
0.02877877877877833 	300.0000000000138 	1.342138007373022e-12 	101324.99999999
0.03128128128128083 	299.9999999999444 	7.466294406069642e-13 	101324.9999999899
0.03378378378378333 	299.9999999998848 	1.03528063338123e-12 	101324.9999999898
0.03628628628628584 	299.9999999999644 	1.382731424149203e-12 	101324.9999999901
0.03878878878878834 	299.9999999999851 	1.4942506365509e-12 	101324.9999999903
0.04129129129129084 	299.9999999999755 	1.340439229653312e-12 	101324.9999999905
0.04379379379379333 	299.9999999999415 	1.822411887101118e-12 	101324.9999999908
0.04629629629629585 	299.9999999998716 	9.811127462431656e-13 	101324.9999999906
0.04879879879879834 	299.9999999999528 	1.714334663054271e-12 	101324.9999999904
0.05130130130130085 	300.0000000000142 	1.181383688248301e-12 	101324.9999999905
0.05380380380380335 	300.0000000000248 	1.018038681538978e-12 	101324.9999999904
0.05630630630630584 	299.9999999999901 	2.023822568591754e-13 	101324.9999999906
0.05880880880880836 	299.9999999999103 	2.634850100436265e-13 	101324.9999999903
0.06131131131131085 	299.999999999961 	2.495169770515163e-13 	101324.9999999902
0.06381381381381336 	299.9999999999529 	2.080769477755268e-13 	101324.9999999903
0.06631631631631586 	299.9999999998754 	9.483235597910861e-14 	101324.9999999904
0.06881881881881835 	299.9999999999455 	5.348481245593896e-13 	101324.9999999904
0.07132132132132088 	299.9999999999847 	1.244124506746985e-13 	101324.9999999908
0.07382382382382337 	299.9999999998792 	3.919058650251966e-13 	101324.9999999908
0.07632632632632587 	299.9999999999633 	1.420527034771279e-13 	101324.9999999909
0.07882882882882837 	299.999999999927 	1.05357308663174e-13 	101324.9999999911
0.08133133133133086 	299.9999999999749 	3.945598958314798e-13 	101324.9999999909
0.08383383383383337 	299.9999999999834 	5.081472690037621e-13 	101324.9999999904
0.08633633633633589 	299.9999999998905 	9.748745082926937e-13 	101324.9999999902
0.08883883883883838 	300.0000000000035 	1.806737615422334e-12 	101324.9999999906
0.09134134134134086 	299.9999999999765 	1.511754231826607e-12 	101324.9999999905
0.09384384384384339 	299.9999999998745 	2.231618342874107e-12 	101324.9999999903
0.09634634634634588 	299.9999999999545 	2.524309257325044e-12 	101324.9999999907
0.09884884884884838 	299.9999999999719 	1.947237935218859e-12 	101324.9999999905
0.1013513513513509 	300.0000000000185 	1.674321749577003e-12 	101324.9999999901
0.1038538538538534 	299.9999999999455 	1.624242413548273e-12 	101324.9999999897
0.1063563563563559 	300.000000000008 	1.69805274148017e-12 	101324.9999999896
0.1088588588588584 	300.0000000000308 	1.137796231211344e-12 	101324.9999999896
0.1113613613613609 	299.9999999999043 	1.205508936303855e-12 	101324.9999999894
0.1138638638638634 	299.9999999999363 	2.081990397023994e-12 	101324.9999999896
0.1163663663663659 	299.9999999999471 	1.610435319793159e-12 	101324.9999999898
0.1188688688688684 	299.9999999999735 	1.70027036801019e-12 	101324.9999999896
0.1213713713713709 	300.0000000000044 	9.837803895988007e-13 	101324.9999999898
0.1238738738738734 	299.9999999999132 	1.311726404898814e-12 	101324.99999999
0.1263763763763759 	299.999999999979 	1.387254790075709e-12 	101324.9999999904
0.1288788788788784 	299.9999999999802 	1.725959578002615e-12 	101324.9999999908
0.1313813813813809 	299.9999999999799 	2.067424505309849e-12 	101324.9999999907
0.1338838838838834 	299.999999999975 	2.827791854207173e-12 	101324.9999999905
0.1363863863863859 	300.0000000000181 	2.197814559508987e-12 	101324.9999999899
0.1388888888888884 	300.0000000000493 	2.743262894447682e-12 	101324.9999999897
0.1413913913913909 	300.0000000000091 	1.647339391716567e-12 	101324.9999999896
0.1438938938938934 	299.9999999999936 	1.998235965717574e-12 	101324.9999999897
0.1463963963963959 	299.9999999999529 	5.605708482211168e-13 	101324.9999999897
0.1488988988988985 	299.9999999998969 	2.310842525068265e-12 	101324.9999999899
0.1514014014014009 	299.9999999999636 	8.039806773237619e-13 	101324.9999999897
0.1539039039039035 	299.999999999957 	3.183932076669201e-12 	101324.9999999896
0.1564064064064059 	299.9999999999183 	3.837899270620505e-13 	101324.9999999899
0.1589089089089084 	299.9999999999711 	3.241873070996451e-12 	101324.99999999
0.1614114114114109 	299.9999999999658 	3.099471137363914e-13 	101324.9999999899
0.1639139139139134 	299.999999999898 	1.808774530034356e-12 	101324.9999999899
0.166416416416416 	300.0000000000078 	9.328362350850823e-13 	101324.9999999901
0.1689189189189185 	300.0000000000388 	1.118671285532326e-12 	101324.9999999899
0.1714214214214209 	300.0000000000047 	1.734193338706688e-12 	101324.9999999896
0.1739239239239235 	299.9999999999899 	5.964396429619917e-13 	101324.9999999894
0.1764264264264259 	299.9999999999654 	2.449976427734109e-12 	101324.9999999894
0.1789289289289284 	300.0000000000106 	6.15723739767086e-13 	101324.9999999899
0.181431431431431 	299.9999999999603 	1.8957946348115e-12 	101324.9999999899
0.1839339339339334 	299.9999999999626 	3.284875160229178e-13 	101324.9999999897
0.186436436436436 	299.9999999999209 	1.779462272021578e-12 	101324.9999999896
0.1889389389389385 	299.9999999999752 	1.147867984504526e-12 	101324.9999999896
0.191441441441441 	299.9999999999717 	1.275399583065445e-12 	101324.9999999897
0.1939439439439434 	299.9999999999102 	3.02041015912075e-12 	101324.9999999899
0.196446446446446 	299.9999999999329 	1.223983381975978e-12 	101324.9999999897
0.1989489489489485 	299.9999999999583 	3.078328305443676e-12 	101324.9999999895
0.2014514514514509 	299.9999999999791 	3.737424957987787e-13 	101324.9999999895
0.2039539539539535 	299.9999999999931 	1.627441823191316e-12 	101324.9999999896
0.2064564564564559 	299.9999999999492 	1.480871426454036e-12 	101324.9999999892
0.2089589589589585 	299.9999999999816 	2.623908296465078e-12 	101324.999999989
0.211461461461461 	299.9999999999178 	3.329791218056049e-12 	101324.9999999888
0.2139639639639635 	299.9999999999712 	3.755544800650836e-12 	101324.9999999887
0.2164664664664659 	299.999999999997 	5.225157116053358e-12 	101324.999999989
0.2189689689689684 	299.9999999999959 	3.076127545437707e-12 	101324.9999999889
0.221471471471471 	299.9999999999944 	5.690010296131196e-12 	101324.9999999889
0.2239739739739735 	299.9999999999472 	2.927102568354254e-12 	101324.9999999891
0.226476476476476 	299.9999999999685 	4.279126532830797e-12 	101324.9999999891
0.2289789789789785 	299.9999999999912 	3.396514288177684e-12 	101324.999999989
0.231481481481481 	299.9999999999835 	3.978444483415832e-12 	101324.9999999889
0.2339839839839835 	299.9999999999824 	4.441769743531124e-12 	101324.999999989
0.236486486486486 	300.0000000000255 	3.541139571004013e-12 	101324.9999999886
0.2389889889889885 	300.0000000000049 	4.401735939696451e-12 	101324.9999999887
0.241491491491491 	299.9999999999033 	1.826628680819737e-12 	101324.9999999885
0.2439939939939935 	299.999999999976 	3.661944909097076e-12 	101324.9999999887
0.246496496496496 	299.9999999999906 	1.264029390487656e-12 	101324.9999999889
0.2489989989989985 	300.0000000000408 	1.97880473971976e-12 	101324.9999999893
0.251501501501501 	300.0000000000355 	7.526531492926231e-13 	101324.9999999894
0.2540040040040035 	299.9999999999903 	1.875220371825154e-13 	101324.9999999894
0.256506506506506 	300.0000000000335 	1.26243744089047e-12 	101324.9999999894
0.2590090090090086 	299.9999999999029 	9.238841738270638e-13 	101324.9999999894
0.261511511511511 	299.9999999999978 	2.061652659034072e-12 	101324.9999999895
0.2640140140140135 	299.9999999999865 	8.51031615697276e-13 	101324.9999999894
0.2665165165165161 	299.9999999999182 	2.192782550021214e-12 	101324.9999999894
0.2690190190190185 	300.0000000000151 	1.101087762877359e-12 	101324.9999999895
0.271521521521521 	300.0000000000182 	1.157257341762627e-12 	101324.9999999894
0.2740240240240235 	300.0000000000202 	1.202685747963903e-12 	101324.9999999893
0.276526526526526 	300.0000000000068 	6.618790570822532e-13 	101324.9999999895
0.2790290290290286 	299.9999999999293 	1.508990457646211e-12 	101324.9999999893
0.281531531531531 	299.9999999999125 	7.342699301617551e-13 	101324.9999999895
0.2840340340340335 	299.9999999999759 	2.375757220864637e-12 	101324.9999999892
0.2865365365365361 	299.9999999999523 	1.969235265399522e-12 	101324.9999999892
0.2890390390390385 	299.9999999999961 	2.848551763767191e-12 	101324.9999999892
0.291541541541541 	299.9999999999965 	3.141820001007397e-12 	101324.999999989
0.2940440440440436 	299.9999999999869 	1.532063618721535e-12 	101324.9999999891
0.296546546546546 	299.9999999999931 	2.838139712539492e-12 	101324.9999999892
0.2990490490490486 	299.9999999999321 	8.716713512459399e-13 	101324.9999999892
0.3015515515515511 	300.0000000000438 	4.851314457184812e-12 	101324.9999999892
0.3040540540540535 	299.9999999999947 	2.03640660547063e-12 	101324.9999999895
0.3065565565565562 	299.9999999999936 	4.494675173691523e-12 	101324.9999999894
0.3090590590590585 	299.9999999999842 	2.453776834962677e-12 	101324.999999989
0.3115615615615611 	299.9999999999295 	3.108445577177179e-12 	101324.999999989
0.3140640640640635 	300.0000000000088 	1.737546020707684e-12 	101324.9999999887
0.316566566566566 	299.9999999999934 	2.465587628275852e-12 	101324.9999999888
0.3190690690690687 	299.9999999999469 	1.281481711155772e-12 	101324.9999999886
0.3215715715715711 	300.0000000000152 	2.327284157946277e-12 	101324.9999999887
0.3240740740740735 	299.9999999999946 	1.461289283630042e-12 	101324.9999999891
0.326576576576576 	299.9999999998878 	1.559696985586779e-12 	101324.9999999891
0.3290790790790786 	300.0000000000078 	9.765354786434305e-13 	101324.9999999893
0.3315815815815811 	300.0000000000358 	5.210883227264394e-13 	101324.9999999895
0.3340840840840836 	299.9999999999866 	1.369875505615661e-12 	101324.9999999895
0.3365865865865861 	300.0000000000612 	8.247480790220613e-13 	101324.9999999898
0.3390890890890886 	300.0000000000533 	9.635810309650969e-13 	101324.9999999898
0.3415915915915911 	300.0000000000038 	6.401861046364554e-13 	101324.9999999894
0.3440940940940935 	299.9999999999501 	1.569749116398831e-12 	101324.9999999894
0.3465965965965962 	300.0000000000437 	9.051507092881021e-13 	101324.9999999894
0.3490990990990985 	300.0000000000304 	5.900347187681198e-13 	101324.9999999892
0.3516016016016011 	299.9999999999783 	4.312703146771134e-13 	101324.9999999892
0.3541041041041035 	300.0000000000043 	1.133737291019099e-12 	101324.9999999894
0.3566066066066061 	299.9999999999538 	2.011719055980936e-12 	101324.9999999895
0.3591091091091085 	299.9999999999083 	1.024444632113879e-12 	101324.9999999894
0.3616116116116112 	299.9999999999352 	2.801866719739013e-12 	101324.9999999896
0.3641141141141137 	299.9999999999254 	1.149908644082631e-12 	101324.9999999896
0.3666166166166161 	299.9999999999126 	3.758549012535298e-12 	101324.9999999899
0.3691191191191185 	300.000000000041 	2.429756786701742e-12 	101324.99999999
0.371621621621621 	300.0000000000192 	3.324687185520378e-12 	101324.9999999901
0.3741241241241237 	300.0000000000563 	2.000295193225866e-12 	101324.9999999902
0.3766266266266261 	300.0000000000364 	2.20372633121608e-12 	101324.9999999905
0.3791291291291286 	299.9999999999873 	1.418026050505688e-12 	101324.9999999905
0.3816316316316311 	299.9999999999094 	2.50551844006593e-12 	101324.9999999901
0.3841341341341336 	300.000000000011 	1.158288245989221e-12 	101324.9999999901
0.3866366366366362 	299.9999999999966 	2.003630559528027e-12 	101324.9999999901
0.3891391391391387 	299.9999999999507 	1.049003551001482e-12 	101324.9999999902
0.391641641641641 	299.9999999999926 	1.23496637203304e-12 	101324.9999999902
0.3941441441441436 	300.000000000004 	7.714770676003587e-13 	101324.9999999901
0.3966466466466462 	299.9999999999944 	1.190135733040282e-12 	101324.9999999897
0.3991491491491486 	299.9999999999366 	5.821951470558045e-13 	101324.9999999896
0.4016516516516512 	299.999999999899 	1.053690907799372e-12 	101324.9999999894
0.4041541541541536 	299.9999999999458 	8.801060446099435e-13 	101324.9999999893
0.4066566566566561 	299.9999999999404 	1.909401808106146e-12 	101324.9999999898
0.4091591591591587 	299.9999999999863 	1.168828598714819e-12 	101324.9999999899
0.4116616616616612 	300.0000000000004 	2.749408975888146e-12 	101324.9999999897
0.4141641641641635 	300.0000000000454 	1.870666321570404e-12 	101324.9999999898
0.4166666666666662 	299.9999999999977 	1.688902160492645e-12 	101324.9999999898
0.4191691691691687 	299.9999999999371 	2.680949343639639e-12 	101324.9999999899
0.421671671671671 	300.0000000000131 	1.36126068762883e-12 	101324.9999999899
0.4241741741741737 	299.999999999974 	3.186432848607934e-12 	101324.99999999
0.4266766766766761 	299.9999999999517 	2.258310634848466e-12 	101324.9999999902
0.4291791791791785 	300.0000000000209 	3.441795312808884e-12 	101324.9999999903
0.4316816816816812 	300.0000000000134 	3.324835720864033e-12 	101324.9999999902
0.4341841841841836 	299.9999999999848 	3.000434567746323e-12 	101324.9999999902
0.4366866866866862 	299.9999999999065 	2.106725113798658e-12 	101324.9999999901
0.4391891891891885 	299.9999999999843 	1.831461755130341e-12 	101324.9999999903
0.4416916916916913 	299.9999999999838 	2.116533970264182e-12 	101324.9999999901
0.4441941941941936 	299.9999999999858 	1.514356919608436e-12 	101324.9999999899
0.4466966966966961 	299.9999999999029 	8.83444863183869e-13 	101324.9999999897
0.4491991991991987 	299.9999999999706 	8.471250042838416e-13 	101324.9999999896
0.4517017017017012 	299.9999999999675 	2.588144269159864e-13 	101324.9999999896
0.4542042042042035 	299.9999999999956 	5.876477096659783e-13 	101324.9999999898
0.4567067067067062 	299.9999999999966 	3.987579267203434e-13 	101324.99999999
0.4592092092092087 	299.9999999999157 	2.161052888459213e-13 	101324.9999999901
0.4617117117117112 	300.0000000000214 	3.771684554273845e-13 	101324.9999999903
0.4642142142142137 	299.9999999999584 	4.633362529220659e-13 	101324.9999999906
0.4667167167167162 	299.9999999999913 	7.185025172027662e-13 	101324.9999999907
0.4692192192192187 	299.9999999999503 	7.083690225311541e-13 	101324.9999999904
0.4717217217217212 	300.0000000000178 	8.096361274530475e-13 	101324.99999999
0.4742242242242236 	299.9999999999524 	1.048816026952746e-12 	101324.9999999901
0.4767267267267262 	299.9999999999729 	1.320608887413501e-12 	101324.99999999
0.4792292292292287 	300.0000000000183 	1.309270882289073e-12 	101324.9999999898
0.4817317317317312 	300.0000000000371 	1.082061368045426e-12 	101324.9999999897
0.4842342342342336 	299.9999999999811 	1.594557960913897e-12 	101324.9999999896
0.4867367367367362 	299.9999999999441 	6.777210898956096e-13 	101324.9999999897
0.4892392392392387 	300.0000000000293 	1.573109478592615e-12 	101324.9999999895
0.4917417417417412 	300.000000000005 	1.281037913806506e-12 	101324.9999999895
0.4942442442442437 	299.999999999894 	7.946457109317137e-13 	101324.9999999894
0.4967467467467462 	299.9999999999196 	1.632045795167854e-12 	101324.9999999896
0.4992492492492487 	299.9999999999102 	4.844555034098345e-13 	101324.9999999899
0.5017517517517511 	299.9999999999466 	7.535560778647783e-13 	101324.9999999898
0.5042542542542537 	299.999999999959 	7.066300298531375e-13 	101324.9999999899
0.5067567567567562 	299.9999999999333 	2.000353727369307e-12 	101324.9999999897
0.5092592592592589 	299.9999999999647 	2.18892916007818e-12 	101324.9999999897
0.5117617617617611 	299.9999999999542 	3.231417884277923e-12 	101324.9999999899
0.5142642642642637 	299.9999999999849 	1.782310018977444e-12 	101324.99999999
0.5167667667667663 	299.9999999999703 	4.1466273105914e-12 	101324.9999999903
0.5192692692692688 	299.9999999999173 	1.851743421598549e-12 	101324.9999999903
0.5217717717717714 	299.9999999999396 	6.281883035737141e-12 	101324.9999999901
0.5242742742742736 	299.9999999999424 	2.472181045221746e-12 	101324.9999999901
0.5267767767767763 	299.9999999999544 	6.153949128070257e-12 	101324.9999999901
0.5292792792792789 	299.9999999999315 	2.716787880579177e-12 	101324.9999999899
0.5317817817817813 	299.9999999999015 	5.208043514295733e-12 	101324.9999999899
0.5342842842842837 	300.0000000000219 	2.725866662463268e-12 	101324.9999999899
0.5367867867867864 	300.0000000000052 	4.094866155105187e-12 	101324.9999999896
0.5392892892892888 	299.9999999999575 	2.435298323940237e-12 	101324.9999999895
0.5417917917917912 	300.0000000000061 	3.568140954233997e-12 	101324.9999999894
0.5442942942942938 	299.9999999999866 	2.323859768917735e-12 	101324.9999999895
0.5467967967967964 	299.9999999999557 	3.545609681894955e-12 	101324.9999999895
0.5492992992992988 	299.9999999999425 	2.00028734992738e-12 	101324.9999999897
0.5518018018018012 	299.9999999999329 	2.83657063033739e-12 	101324.9999999901
0.5543043043043039 	300.0000000000242 	1.716777935936384e-12 	101324.9999999904
0.5568068068068063 	299.9999999999916 	2.484219151916649e-12 	101324.9999999905
0.5593093093093087 	299.9999999999008 	1.473545222286689e-12 	101324.9999999905
0.5618118118118114 	299.9999999999632 	2.661034389434493e-12 	101324.9999999907
0.5643143143143137 	299.9999999999454 	1.234804874774539e-12 	101324.9999999905
0.5668168168168163 	299.9999999999872 	1.90338444323467e-12 	101324.9999999903
0.5693193193193188 	300.0000000000362 	1.701914756556779e-12 	101324.9999999902
0.5718218218218213 	300.0000000000277 	1.354180304466172e-12 	101324.9999999903
0.5743243243243239 	300.0000000000059 	2.360478644689784e-12 	101324.9999999903
0.5768268268268262 	300.000000000007 	1.507501021515045e-12 	101324.9999999905
0.5793293293293288 	299.9999999999436 	3.827817752211861e-12 	101324.9999999904
0.5818318318318314 	299.9999999999088 	2.031240648478037e-12 	101324.9999999905
0.5843343343343338 	299.9999999999802 	5.010296834585566e-12 	101324.9999999904
0.5868368368368363 	299.9999999999749 	1.544704715432333e-12 	101324.9999999901
0.5893393393393387 	299.9999999999434 	4.571750822384377e-12 	101324.9999999898
0.5918418418418413 	299.9999999999364 	1.526308840362263e-12 	101324.9999999898
0.5943443443443439 	300.0000000000185 	2.949606402936362e-12 	101324.9999999896
0.5968468468468463 	300.0000000000171 	1.103804850746797e-12 	101324.9999999894
0.5993493493493487 	300.0000000000339 	1.730069725310235e-12 	101324.9999999893
0.6018518518518514 	299.9999999999777 	1.136071167592218e-12 	101324.9999999894
0.6043543543543537 	299.9999999999963 	1.582310628457315e-12 	101324.9999999893
0.6068568568568564 	299.9999999999845 	9.208545009378328e-13 	101324.9999999894
0.6093593593593587 	299.999999999931 	1.411030879494983e-12 	101324.9999999893
0.6118618618618614 	299.9999999999191 	7.391757348205314e-13 	101324.9999999893
0.6143643643643638 	300.0000000000215 	2.349300895253028e-12 	101324.9999999894
0.6168668668668662 	299.9999999999907 	1.350351743631049e-12 	101324.9999999892
0.6193693693693688 	299.9999999999551 	2.087554622349559e-12 	101324.999999989
0.6218718718718714 	299.9999999999613 	8.458716913299787e-13 	101324.9999999888
0.6243743743743737 	299.9999999999293 	1.787039267228907e-12 	101324.9999999888
0.6268768768768762 	299.9999999999181 	3.50167143758256e-13 	101324.9999999889
0.629379379379379 	299.9999999999488 	4.939351561585787e-13 	101324.999999989
0.6318818818818812 	299.9999999999776 	4.919591296761439e-13 	101324.999999989
0.6343843843843838 	300.0000000000157 	8.402986763019654e-13 	101324.9999999891
0.6368868868868864 	299.9999999999786 	1.502790337072335e-12 	101324.9999999891
0.6393893893893888 	299.9999999999156 	2.446803090617611e-12 	101324.9999999894
0.6418918918918912 	300.0000000000016 	3.077205238874999e-12 	101324.9999999895
0.6443943943943939 	299.9999999999692 	2.94987389800534e-12 	101324.9999999896
0.6468968968968963 	299.9999999999766 	3.806030788613914e-12 	101324.9999999896
0.6493993993993988 	299.9999999999695 	3.153847558706524e-12 	101324.9999999894
0.6519019019019012 	299.9999999999762 	2.596340565329499e-12 	101324.9999999895
0.6544044044044038 	299.9999999998965 	3.503437070730653e-12 	101324.9999999895
0.6569069069069065 	299.9999999999453 	2.192518505117247e-12 	101324.9999999896
0.6594094094094087 	299.9999999999557 	2.726047767196247e-12 	101324.9999999898
0.6619119119119113 	299.9999999999465 	1.474524416511113e-12 	101324.9999999899
0.664414414414414 	300.0000000000015 	2.063005704142339e-12 	101324.9999999899
0.6669169169169162 	300.0000000000202 	1.171574102152379e-12 	101324.9999999897
0.6694194194194188 	299.9999999999811 	2.089138203949072e-12 	101324.9999999895
0.6719219219219214 	299.9999999999109 	9.498699086795242e-13 	101324.9999999896
0.674424424424424 	299.9999999999704 	1.710283379647541e-12 	101324.9999999898
0.6769269269269262 	299.9999999999173 	1.197190326830319e-12 	101324.9999999899
0.679429429429429 	300.0000000000086 	2.170097098906843e-12 	101324.99999999
0.6819319319319311 	299.9999999999787 	1.37937643709199e-12 	101324.9999999899
0.6844344344344341 	299.9999999999933 	1.717178316872528e-12 	101324.99999999
0.686936936936936 	299.9999999999927 	8.231381849863112e-13 	101324.9999999901
0.6894394394394392 	299.9999999999933 	1.197584963723898e-12 	101324.99999999
0.6919419419419413 	299.9999999999828 	1.255907177609591e-12 	101324.99999999
0.694444444444444 	299.999999999923 	8.427866523324316e-13 	101324.99999999
0.6969469469469463 	299.9999999999204 	1.5722775643667e-12 	101324.9999999899
0.6994494494494489 	299.999999999913 	8.36248414544569e-13 	101324.9999999898
0.7019519519519515 	299.9999999999847 	1.761431508480387e-12 	101324.9999999898
0.7044544544544538 	299.9999999999512 	1.7107133684208e-12 	101324.9999999896
0.7069569569569564 	299.9999999999916 	2.310295359076124e-12 	101324.9999999895
0.7094594594594589 	299.9999999999618 	1.733393348420081e-12 	101324.9999999896
0.7119619619619615 	299.9999999999072 	1.660175085928193e-12 	101324.9999999897
0.7144644644644638 	299.99999999994 	1.340517399213422e-12 	101324.9999999896
0.7169669669669665 	299.9999999999106 	9.839186021856504e-13 	101324.9999999895
0.7194694694694688 	299.9999999999837 	8.761210657055766e-13 	101324.9999999894
0.7219719719719715 	299.9999999999766 	4.112892877747394e-13 	101324.9999999891
0.7244744744744737 	300.0000000000009 	3.45233971773678e-13 	101324.999999989
0.7269769769769764 	299.9999999999914 	6.18481575058169e-13 	101324.999999989
0.7294794794794791 	299.9999999999854 	1.206003357626408e-12 	101324.9999999891
0.7319819819819813 	299.9999999999799 	7.416432146665044e-13 	101324.9999999894
0.7344844844844839 	299.9999999999168 	9.598336357263982e-13 	101324.9999999895
0.7369869869869864 	299.9999999999461 	3.442605457267839e-13 	101324.9999999896
0.739489489489489 	299.9999999999303 	4.565409145284057e-13 	101324.9999999898
0.7419919919919914 	299.9999999999138 	1.353172193779192e-12 	101324.9999999899
0.7444944944944939 	299.9999999999711 	1.610042683510532e-12 	101324.9999999898
0.7469969969969963 	299.9999999999683 	2.58912386603412e-12 	101324.9999999897
0.7494994994994989 	299.9999999999391 	2.212497497415542e-12 	101324.9999999896
0.7520020020020015 	299.9999999999732 	2.94731783127326e-12 	101324.9999999897
0.7545045045045039 	299.999999999969 	1.752180116122297e-12 	101324.9999999898
0.7570070070070062 	299.9999999999342 	1.368768937893386e-12 	101324.9999999898
0.7595095095095092 	299.9999999999159 	1.076563375236052e-12 	101324.99999999
0.7620120120120112 	300.0000000000014 	4.361423800656607e-13 	101324.99999999
0.7645145145145138 	299.9999999999833 	7.475819450483307e-13 	101324.99999999
0.7670170170170165 	299.999999999923 	1.432449217113366e-12 	101324.9999999898
0.7695195195195191 	299.9999999999173 	2.330485876314498e-12 	101324.9999999896
0.7720220220220213 	299.9999999999226 	9.882659161933821e-13 	101324.9999999892
0.7745245245245239 	299.9999999999279 	1.967065433665905e-12 	101324.9999999889
0.7770270270270263 	299.9999999999696 	6.8234721475039e-13 	101324.9999999888
0.779529529529529 	299.999999999976 	6.786315278745805e-13 	101324.9999999888
0.7820320320320313 	299.9999999999642 	2.406484309793507e-13 	101324.9999999887
0.784534534534534 	299.9999999999924 	6.614318170657464e-13 	101324.9999999884
0.7870370370370364 	299.9999999999888 	1.178760757535293e-12 	101324.9999999884
0.7895395395395389 	299.9999999999709 	1.278018956281376e-12 	101324.9999999885
0.7920420420420413 	299.9999999999676 	2.086222308452965e-12 	101324.9999999886
0.794544544544544 	299.9999999999704 	2.090137937974454e-12 	101324.9999999888
0.7970470470470463 	300.0000000000026 	2.702901763846255e-12 	101324.9999999891
0.799549549549549 	299.999999999978 	2.117558386160729e-12 	101324.9999999892
0.8020520520520515 	299.9999999999898 	2.227725757810512e-12 	101324.9999999894
0.8045545545545539 	299.9999999999449 	7.141317450826153e-13 	101324.9999999896
0.8070570570570563 	299.9999999999803 	1.400888174871133e-12 	101324.9999999897
0.8095595595595589 	299.9999999999539 	9.272937303232307e-13 	101324.9999999895
0.8120620620620614 	299.9999999999284 	1.034978067733888e-12 	101324.9999999894
0.8145645645645638 	299.9999999999959 	1.406517513791962e-12 	101324.9999999893
0.8170670670670666 	299.9999999999845 	1.295441742748807e-12 	101324.9999999892
0.8195695695695689 	299.9999999999692 	2.580145473364963e-12 	101324.9999999892
0.8220720720720714 	299.9999999999407 	1.916186823971392e-12 	101324.9999999891
0.8245745745745739 	299.9999999999984 	1.651801390401419e-12 	101324.999999989
0.8270770770770765 	299.9999999999751 	1.247287683804658e-12 	101324.9999999888
0.8295795795795788 	299.9999999999406 	1.037459253762054e-12 	101324.9999999889
0.8320820820820815 	300.000000000013 	6.528859592254722e-13 	101324.9999999891
0.834584584584584 	300.0000000000031 	7.599131488635526e-13 	101324.9999999892
0.8370870870870865 	299.9999999999677 	1.066863668005694e-12 	101324.9999999891
0.8395895895895891 	299.9999999999243 	1.304884710279887e-12 	101324.9999999889
0.8420920920920915 	299.999999999934 	1.625301789978016e-12 	101324.9999999888
0.844594594594594 	299.999999999927 	1.772172802303048e-12 	101324.999999989
0.8470970970970964 	299.9999999999361 	1.398559470661459e-12 	101324.9999999892
0.8495995995995991 	299.9999999999791 	1.924172397223724e-12 	101324.9999999894
0.8521021021021015 	299.999999999972 	2.055947954642443e-12 	101324.9999999896
0.8546046046046039 	299.9999999999713 	2.867172224009158e-12 	101324.9999999896
0.8571071071071066 	299.9999999999941 	1.86284451187858e-12 	101324.9999999897
0.8596096096096089 	299.9999999999523 	3.316415788630612e-12 	101324.9999999901
0.8621121121121116 	299.999999999915 	1.275057584281862e-12 	101324.9999999901
0.8646146146146139 	299.9999999999828 	2.409264165583359e-12 	101324.99999999
0.8671171171171166 	299.9999999999629 	1.38716993631733e-12 	101324.99999999
0.8696196196196189 	299.9999999999378 	1.463122586430427e-12 	101324.9999999899
0.8721221221221216 	299.9999999999735 	7.809958923991869e-13 	101324.9999999898
0.874624624624624 	299.9999999999997 	1.468589404057942e-12 	101324.9999999896
0.8771271271271264 	300.0000000000014 	2.271224282033363e-12 	101324.9999999897
0.879629629629629 	300.0000000000083 	2.420614114955519e-12 	101324.9999999896
0.8821321321321317 	299.9999999999822 	3.664521516584369e-12 	101324.9999999896
0.8846346346346339 	299.9999999999064 	1.628101963629636e-12 	101324.9999999893
0.8871371371371364 	299.9999999999435 	2.747593163301886e-12 	101324.9999999892
0.8896396396396391 	299.9999999999491 	1.573802782949739e-12 	101324.9999999893
0.8921421421421414 	299.9999999999525 	2.483042923261e-12 	101324.999999989
0.8946446446446441 	299.9999999999797 	1.766799971001298e-12 	101324.9999999891
0.8971471471471464 	300.0000000000039 	2.148058258706855e-12 	101324.9999999895
0.8996496496496489 	299.9999999999781 	2.530657202912605e-12 	101324.9999999895
0.9021521521521517 	299.99999999996 	3.037727623272163e-12 	101324.9999999893
0.9046546546546541 	299.9999999999906 	4.346633026099459e-12 	101324.9999999893
0.9071571571571564 	299.9999999999426 	4.850713968316372e-12 	101324.9999999894
0.9096596596596589 	299.9999999999407 	5.072244638094808e-12 	101324.9999999895
0.9121621621621616 	300.0000000000056 	5.458191674835946e-12 	101324.9999999898
0.9146646646646639 	299.9999999999802 	5.416921457530864e-12 	101324.9999999899
0.9171671671671666 	299.9999999999437 	5.713230162633769e-12 	101324.9999999899
0.9196696696696689 	300.0000000000031 	5.21449817698819e-12 	101324.9999999898
0.9221721721721714 	300.0000000000049 	6.424955371591705e-12 	101324.9999999895
0.9246746746746741 	299.9999999999403 	4.397259171558646e-12 	101324.9999999892
0.9271771771771765 	299.9999999999428 	5.143737019667203e-12 	101324.9999999891
0.9296796796796791 	299.9999999999913 	3.299479359789216e-12 	101324.9999999892
0.9321821821821816 	299.9999999999613 	4.123109330428243e-12 	101324.9999999893
0.9346846846846838 	299.999999999933 	3.289206156013898e-12 	101324.9999999891
0.9371871871871866 	299.9999999999947 	3.365964954946767e-12 	101324.9999999891
0.9396896896896891 	299.9999999999951 	3.232465929905057e-12 	101324.9999999891
0.9421921921921914 	299.9999999999953 	3.043415590132001e-12 	101324.999999989
0.9446946946946939 	299.9999999999559 	3.677160910183154e-12 	101324.9999999889
0.9471971971971965 	299.9999999999113 	2.143722208529561e-12 	101324.999999989
0.9496996996996991 	299.9999999999534 	3.52482498626849e-12 	101324.9999999891
0.9522022022022016 	299.9999999999681 	2.855314376968144e-12 	101324.9999999891
0.9547047047047038 	299.9999999999662 	4.457656391221099e-12 	101324.9999999891
0.9572072072072064 	299.9999999999569 	4.346384714672894e-12 	101324.999999989
0.9597097097097093 	299.9999999999701 	4.790742020026507e-12 	101324.999999989
0.9622122122122114 	299.9999999999627 	4.486731209154795e-12 	101324.999999989
0.964714714714714 	299.9999999999603 	3.702571061646627e-12 	101324.9999999887
0.9672172172172167 	299.999999999959 	3.450727878504401e-12 	101324.9999999884
0.969719719719719 	299.9999999999873 	2.786568878617544e-12 	101324.9999999883
0.9722222222222214 	299.9999999999803 	2.959251189710577e-12 	101324.9999999884
0.9747247247247239 	299.9999999999703 	3.140564049409932e-12 	101324.9999999883
0.9772272272272267 	299.9999999999987 	2.886284890725298e-12 	101324.9999999884
0.9797297297297292 	299.9999999999893 	3.404495199112528e-12 	101324.9999999885
0.9822322322322313 	299.9999999999935 	3.091652907438968e-12 	101324.9999999884
0.9847347347347344 	299.9999999999842 	4.768993407038065e-12 	101324.9999999885
0.9872372372372363 	299.9999999999472 	3.100612968089262e-12 	101324.9999999885
0.9897397397397389 	299.9999999999626 	4.85832790661714e-12 	101324.9999999885
0.9922422422422417 	299.9999999999368 	4.016609844210109e-12 	101324.9999999887
0.9947447447447441 	299.9999999999476 	4.663367061160834e-12 	101324.9999999889
0.9972472472472468 	299.9999999999567 	3.43602372377976e-12 	101324.9999999889
0.999749749749749 	299.999999999954 	3.32470352582251e-12 	101324.999999989
1.002252252252252 	299.9999999999769 	2.856142394976968e-12 	101324.999999989
1.004754754754754 	299.9999999999768 	2.790648729242782e-12 	101324.9999999888
1.007257257257256 	299.9999999999541 	3.309520483042442e-12 	101324.9999999887
1.009759759759759 	299.9999999999434 	2.434251074146335e-12 	101324.9999999887
1.012262262262261 	299.9999999999535 	4.330748270210465e-12 	101324.9999999887
1.014764764764764 	299.9999999999166 	3.829500328093279e-12 	101324.9999999887
1.017267267267267 	299.9999999999039 	4.523981698073252e-12 	101324.9999999886
1.019769769769769 	299.9999999999621 	3.345776824279039e-12 	101324.9999999885
1.022272272272272 	299.9999999999704 	3.294236928983534e-12 	101324.9999999881
1.024774774774774 	299.9999999999602 	2.844434791175826e-12 	101324.9999999879
1.027277277277277 	299.9999999999596 	2.712268551590308e-12 	101324.9999999878
1.029779779779779 	299.9999999999964 	3.288177240761038e-12 	101324.9999999879
1.032282282282282 	299.999999999996 	3.576528256717025e-12 	101324.999999988
1.034784784784784 	299.9999999999834 	4.115945614698358e-12 	101324.9999999881
1.037287287287286 	299.9999999999523 	4.29550884788785e-12 	101324.9999999882
1.039789789789789 	299.9999999999717 	3.837017799999759e-12 	101324.9999999883
1.042292292292291 	300.0000000000078 	3.215583967987224e-12 	101324.9999999885
1.044794794794794 	300.0000000000135 	2.536817812095943e-12 	101324.9999999884
1.047297297297296 	300.0000000000402 	3.369202075547545e-12 	101324.9999999883
1.049799799799799 	299.9999999999799 	2.418613612163776e-12 	101324.9999999882
1.052302302302302 	299.9999999999444 	3.669525389242638e-12 	101324.9999999881
1.054804804804804 	299.9999999999254 	2.965227923634745e-12 	101324.9999999881
1.057307307307306 	299.9999999999006 	3.817351368137355e-12 	101324.9999999882
1.059809809809809 	299.9999999999431 	3.390380513896755e-12 	101324.9999999882
1.062312312312312 	299.9999999999442 	4.292047749865514e-12 	101324.9999999882
1.064814814814814 	299.999999999943 	4.767696881271896e-12 	101324.9999999886
1.067317317317317 	299.9999999999092 	5.616778699736531e-12 	101324.999999989
1.069819819819819 	299.9999999999066 	5.551995646391034e-12 	101324.9999999889
1.072322322322321 	299.9999999999725 	4.291482920317133e-12 	101324.9999999887
1.074824824824824 	299.9999999999839 	5.438713056070681e-12 	101324.9999999887
1.077327327327327 	300.0000000000115 	5.149252155900573e-12 	101324.9999999888
1.079829829829829 	300.0000000000321 	6.404709390859752e-12 	101324.9999999889
1.082332332332332 	300.0000000000008 	6.746614866592704e-12 	101324.9999999889
1.084834834834834 	299.9999999999771 	7.178316858649809e-12 	101324.9999999888
1.087337337337337 	299.9999999999304 	7.260528936515505e-12 	101324.9999999886
1.089839839839839 	299.9999999999242 	5.840206397840594e-12 	101324.9999999885
1.092342342342342 	299.9999999999618 	5.895262803593186e-12 	101324.9999999885
1.094844844844844 	299.9999999999715 	4.12234096641321e-12 	101324.9999999883
1.097347347347347 	299.9999999999389 	4.915376949734402e-12 	101324.999999988
1.099849849849849 	299.999999999928 	2.549536692065082e-12 	101324.9999999877
1.102352352352352 	299.9999999999448 	2.859003538902806e-12 	101324.9999999875
1.104854854854854 	299.9999999999609 	1.725647002103525e-12 	101324.9999999874
1.107357357357357 	299.9999999999512 	2.96321105559152e-12 	101324.9999999872
1.109859859859859 	299.9999999999314 	2.042641513868769e-12 	101324.9999999872
1.112362362362362 	300.0000000000049 	2.996374593197262e-12 	101324.9999999871
1.114864864864865 	300.0000000000034 	3.077109999007801e-12 	101324.9999999872
1.117367367367367 	299.9999999999584 	2.777161768023713e-12 	101324.9999999872
1.119869869869869 	299.9999999999188 	3.251815734851574e-12 	101324.9999999871
1.122372372372372 	299.9999999999294 	2.87657974332261e-12 	101324.999999987
1.124874874874874 	299.9999999999278 	3.389559306433335e-12 	101324.9999999869
1.127377377377377 	299.9999999999521 	2.619197178629774e-12 	101324.9999999869
1.129879879879879 	300.0000000000208 	2.624566632593733e-12 	101324.9999999868
1.132382382382382 	300.0000000000283 	2.472236771505192e-12 	101324.9999999868
1.134884884884884 	299.9999999999986 	3.246435987169041e-12 	101324.999999987
1.137387387387387 	300.0000000000098 	3.635415759431926e-12 	101324.9999999873
1.139889889889889 	299.9999999999532 	2.962336027782517e-12 	101324.9999999874
1.142392392392392 	299.999999999943 	3.661486112524813e-12 	101324.9999999874
1.144894894894894 	299.9999999999998 	2.957728760597385e-12 	101324.9999999875
1.147397397397397 	299.9999999999799 	3.8046695520353e-12 	101324.9999999875
1.149899899899899 	299.9999999999221 	3.392518203461602e-12 	101324.9999999875
1.152402402402402 	299.999999999912 	3.727573857172296e-12 	101324.9999999874
1.154904904904904 	299.9999999999471 	3.17262574771956e-12 	101324.9999999873
1.157407407407407 	299.9999999999472 	3.749645176853298e-12 	101324.9999999873
1.159909909909909 	299.9999999999224 	4.123970838772917e-12 	101324.9999999874
1.162412412412412 	299.9999999999202 	3.899667572358296e-12 	101324.9999999873
1.164914914914914 	299.9999999999405 	5.009174238563565e-12 	101324.9999999873
1.167417417417417 	299.9999999999372 	3.986685025116436e-12 	101324.9999999874
1.169919919919919 	299.999999999989 	4.485579317650572e-12 	101324.9999999875
1.172422422422422 	300.0000000000262 	4.174568116655996e-12 	101324.9999999875
1.174924924924925 	299.9999999999749 	4.767572958974713e-12 	101324.9999999874
1.177427427427427 	299.9999999999405 	4.248242870979124e-12 	101324.9999999875
1.179929929929929 	299.9999999999948 	3.812840956795671e-12 	101324.9999999874
1.182432432432432 	300.0000000000284 	5.141587370513624e-12 	101324.9999999875
1.184934934934934 	300.0000000000013 	5.073582634697081e-12 	101324.9999999878
1.187437437437437 	299.9999999999757 	6.438471730660436e-12 	101324.999999988
1.189939939939939 	299.9999999999624 	6.122481348621333e-12 	101324.9999999878
1.192442442442442 	299.9999999999217 	6.793868217191923e-12 	101324.9999999877
1.194944944944944 	299.9999999999225 	6.123501230521293e-12 	101324.9999999876
1.197447447447447 	299.9999999999814 	6.353505855423963e-12 	101324.9999999877
1.199949949949949 	299.9999999999974 	6.218554104157849e-12 	101324.9999999879
1.202452452452452 	299.9999999999455 	5.587653717532574e-12 	101324.999999988
1.204954954954955 	299.9999999999378 	6.651564625510594e-12 	101324.999999988
1.207457457457457 	299.9999999999603 	6.007555993269889e-12 	101324.999999988
1.20995995995996 	299.9999999999582 	6.404946856226167e-12 	101324.9999999877
1.212462462462462 	299.9999999999756 	5.344769582626506e-12 	101324.9999999873
1.214964964964964 	299.9999999999823 	5.620006353266849e-12 	101324.9999999871
1.217467467467467 	299.9999999999883 	4.308505680476308e-12 	101324.999999987
1.219969969969969 	299.9999999999576 	4.389567135500802e-12 	101324.9999999868
1.222472472472472 	299.9999999999997 	3.708826660415066e-12 	101324.9999999866
1.224974974974975 	300.0000000000442 	3.368654065191886e-12 	101324.9999999866
1.227477477477477 	299.9999999999881 	4.271977547500045e-12 	101324.9999999866
1.229979979979979 	299.9999999999694 	3.12374449744691e-12 	101324.9999999868
1.232482482482482 	299.9999999999444 	4.043794346472376e-12 	101324.9999999868
1.234984984984984 	299.9999999999459 	3.846333301799481e-12 	101324.999999987
1.237487487487487 	299.9999999999708 	5.546333758837655e-12 	101324.9999999873
1.239989989989989 	299.9999999999729 	5.665610789005936e-12 	101324.9999999874
1.242492492492492 	300.0000000000047 	5.5273987774889e-12 	101324.9999999873
1.244994994994994 	299.9999999999774 	6.207316335198876e-12 	101324.9999999873
1.247497497497497 	299.9999999999919 	4.915617351243766e-12 	101324.9999999871
1.249999999999999 	300.0000000000341 	5.361962621791223e-12 	101324.9999999869
