-1.25 	300 	0.03047685363690954 	101312.5655056418
-1.247497497497497 	299.9890168288567 	0.02903744477502241 	101313.2217492606
-1.244994994994995 	299.9905790552048 	0.02710921641370376 	101313.8823325961
-1.242492492492492 	299.9911572555018 	0.02568531795700128 	101314.5461484294
-1.23998998998999 	299.9917157588677 	0.02397475384203789 	101315.2070988929
-1.237487487487487 	299.9922820707741 	0.02236851605502001 	101315.8765775599
-1.234984984984985 	299.9928529094119 	0.02072031641657035 	101316.5513809823
-1.232482482482482 	299.9934179063462 	0.01908060319491749 	101317.219279946
-1.22997997997998 	299.993980497571 	0.01745084876436408 	101317.8843423387
-1.227477477477477 	299.9945456914111 	0.0158152559464732 	101318.5524875384
-1.224974974974975 	299.9951127194191 	0.01416700159435624 	101319.2228024942
-1.222472472472472 	299.9956831518181 	0.01251066381426956 	101319.8971448315
-1.21996996996997 	299.9962609974386 	0.01083708887566696 	101320.5802570951
-1.217467467467467 	299.9968433238452 	0.009149235515429205 	101321.2686651426
-1.214964964964965 	299.9974222568424 	0.007478245189259537 	101321.9530590314
-1.212462462462462 	299.9979923909472 	0.005829350102377878 	101322.6270544961
-1.20995995995996 	299.9985553705155 	0.004195180127029297 	101323.2925984731
-1.207457457457457 	299.9991198217893 	0.002560379808693726 	101323.9598899742
-1.204954954954955 	299.9996894050876 	0.0009081312231936801 	101324.6332552377
-1.202452452452452 	300.0002645824448 	0.0008611010614345879 	101325.3132337227
-1.19994994994995 	300.0008420212424 	0.002425991728330908 	101325.9958843399
-1.197447447447447 	300.0014173009184 	0.004092753073082118 	101326.6759864942
-1.194944944944945 	300.0019914240059 	0.00575608167227351 	101327.3547250049
-1.192442442442442 	300.002564773829 	0.007417114926158723 	101328.0325526251
-1.18993993993994 	300.0031374830182 	0.009076249785854529 	101328.7096261805
-1.187437437437437 	300.003709545929 	0.01073348604922645 	101329.3859388537
-1.184934934934935 	300.0042808940833 	0.0123886378803694 	101330.0614095955
-1.182432432432432 	300.0048514348052 	0.01404144925467214 	101330.7359287307
-1.17992992992993 	300.0054210669788 	0.01569163865888099 	101331.4093770142
-1.177427427427427 	300.0059896871505 	0.01733891082418709 	101332.0816326714
-1.174924924924925 	300.0065571925901 	0.01898296374141013 	101332.7525735656
-1.172422422422422 	300.0071234811916 	0.02062349598265806 	101333.4220776613
-1.16991991991992 	300.0076884498024 	0.0222602071696153 	101334.0900229864
-1.167417417417417 	300.0082519933637 	0.02389279473859852 	101334.7562875144
-1.164914914914915 	300.0088140068782 	0.02552095619106679 	101335.4207491777
-1.162412412412412 	300.0093743884798 	0.02714439253679301 	101336.0832859911
-1.15990990990991 	300.0099330386465 	0.02876280623104293 	101336.7437761878
-1.157407407407407 	300.0104898565652 	0.03037589838265077 	101337.402098311
-1.154904904904904 	300.0110447375598 	0.03198337152356195 	101338.058131328
-1.152402402402403 	300.0115975751663 	0.03358493151210217 	101338.7117546446
-1.1498998998999 	300.0121482654092 	0.03518028393666599 	101339.3628481007
-1.147397397397397 	300.0126967085184 	0.03676913373836393 	101340.0112919758
-1.144894894894895 	300.0132428079683 	0.03835118921029788 	101340.6569670243
-1.142392392392392 	300.013786467443 	0.03992616116891021 	101341.2997545034
-1.13988988988989 	300.0143275886228 	0.04149375917402871 	101341.9395362109
-1.137387387387387 	300.0148660708563 	0.04305369420230497 	101342.5761945519
-1.134884884884885 	300.0154018124113 	0.04460568064958596 	101343.2096125006
-1.132382382382382 	300.015934712469 	0.04614943352460499 	101343.8396736144
-1.12987987987988 	300.0164646714138 	0.04768466824018654 	101344.4662620288
-1.127377377377377 	300.0169915912447 	0.04921110335056801 	101345.089262578
-1.124874874874875 	300.0175153753139 	0.05072845949994152 	101345.708560855
-1.122372372372372 	300.0180359277912 	0.05223645675588615 	101346.3240431083
-1.11986986986987 	300.0185531536354 	0.05373481795305325 	101346.9355962343
-1.117367367367367 	300.0190669581453 	0.05522326939652324 	101347.5431077722
-1.114864864864865 	300.0195772472958 	0.05670153726025621 	101348.1464660576
-1.112362362362362 	300.0200839276811 	0.05816934927590799 	101348.7455602839
-1.10985985985986 	300.0205869064226 	0.0596264368670604 	101349.3402804955
-1.107357357357357 	300.0210860915078 	0.06107253289718495 	101349.930517533
-1.104854854854855 	300.0215813912004 	0.06250737123376746 	101350.5161629503
-1.102352352352353 	300.0220727146079 	0.06393068898664112 	101351.0971091675
-1.09984984984985 	300.0225599716807 	0.06534222547045658 	101351.6732494631
-1.097347347347347 	300.0230430728498 	0.06674172075266356 	101352.2444780537
-1.094844844844845 	300.0235219295107 	0.06812891812999514 	101352.8106900885
-1.092342342342342 	300.0239964537821 	0.06950356389176453 	101353.3717815372
-1.08983983983984 	300.0244665585645 	0.07086540479007147 	101353.9276493131
-1.087337337337337 	300.0249321573802 	0.07221419047019295 	101354.4781911758
-1.084834834834835 	300.0253931646746 	0.07354967428778925 	101355.0233058904
-1.082332332332332 	300.0258494959367 	0.07487161041966175 	101355.5628933216
-1.07982982982983 	300.0263010672114 	0.07617975550442861 	101356.0968543015
-1.077327327327327 	300.0267477956356 	0.07747387034438664 	101356.6250907886
-1.074824824824825 	300.0271895992694 	0.07875371750122784 	101357.147505766
-1.072322322322323 	300.0276263970655 	0.08001906186175761 	101357.6640033488
-1.06981981981982 	300.0280581089967 	0.08126967180583643 	101358.1744887861
-1.067317317317317 	300.0284846556739 	0.08250531788223518 	101358.678868314
-1.064814814814815 	300.028905959143 	0.08372577331586298 	101359.1770494893
-1.062312312312312 	300.0293219421659 	0.08493081507759867 	101359.6689409432
-1.05980980980981 	300.0297325283006 	0.08612022238685652 	101360.1544523671
-1.057307307307307 	300.0301376424708 	0.08729377634889017 	101360.6334947517
-1.054804804804805 	300.0305372103044 	0.08845126209579182 	101361.1059800859
-1.052302302302302 	300.0309311585373 	0.08959246829132921 	101361.5718217344
-1.0497997997998 	300.0313194149361 	0.09071718523569604 	101362.0309343703
-1.047297297297297 	300.0317019084447 	0.09182520662435818 	101362.4832336579
-1.044794794794795 	300.0320785690803 	0.09291632989241988 	101362.9286366383
-1.042292292292292 	300.0324493272592 	0.09399035430267202 	101363.3670614103
-1.03978978978979 	300.032814114879 	0.09504708297529137 	101363.7984274818
-1.037287287287287 	300.0331728658638 	0.09608632312018955 	101364.2226560763
-1.034784784784785 	300.0335255145374 	0.09710788361496003 	101364.6396692055
-1.032282282282283 	300.0338719953945 	0.09811157707170205 	101365.0493901546
-1.02977977977978 	300.0342122444811 	0.09909721984737063 	101365.4517437493
-1.027277277277277 	300.034546200254 	0.100064630303534 	101365.8466559502
-1.024774774774775 	300.0348738023392 	0.1010136315882565 	101366.2340546043
-1.022272272272272 	300.0351949896351 	0.101944050668131 	101366.6138687587
-1.01976976976977 	300.035509701827 	0.1028557160434642 	101366.9860283373
-1.017267267267267 	300.0358178826368 	0.1037484605591655 	101367.3504652349
-1.014764764764765 	300.0361194773767 	0.1046221205898796 	101367.7071123325
-1.012262262262262 	300.0364144291389 	0.1054765347048038 	101368.0559036696
-1.00975975975976 	300.0367026811916 	0.1063115466781835 	101368.3967756507
-1.007257257257257 	300.0369841807692 	0.1071270042002494 	101368.7296657343
-1.004754754754755 	300.0372588802154 	0.1079227577067041 	101369.0545128499
-1.002252252252252 	300.0375267319102 	0.1086986618819009 	101369.3712579341
-0.9997497497497498 	300.0377876823135 	0.1094545737046786 	101369.6798421237
-0.9972472472472473 	300.0380416777524 	0.1101903531069281 	101369.9802081893
-0.9947447447447449 	300.0382886729845 	0.1109058654077355 	101370.2723014533
-0.9922422422422421 	300.0385286295291 	0.1116009788589594 	101370.5560676486
-0.9897397397397399 	300.0387615078141 	0.1122755652908978 	101370.8314544502
-0.9872372372372376 	300.0389872605851 	0.1129295020866505 	101371.0984120871
-0.9847347347347346 	300.0392058363081 	0.1135626690173308 	101371.3568909413
-0.9822322322322323 	300.039417192157 	0.1141749498501655 	101371.6068436539
-0.9797297297297296 	300.0396212990192 	0.1147662343630465 	101371.8482256548
-0.9772272272272275 	300.0398181302255 	0.1153364136913221 	101372.0809918314
-0.9747247247247248 	300.0400076506475 	0.1158853815737061 	101372.3050987468
-0.9722222222222224 	300.0401898154882 	0.1164130378316364 	101372.5205060759
-0.9697197197197196 	300.0403645773805 	0.1169192845341366 	101372.7271732305
-0.9672172172172175 	300.040531901099 	0.1174040276502003 	101372.9250615742
-0.9647147147147147 	300.0406917682869 	0.1178671803208533 	101373.1141363463
-0.9622122122122124 	300.0408441641561 	0.1183086567489026 	101373.2943621552
-0.9597097097097099 	300.0409890656859 	0.1187283732011451 	101373.4657042815
-0.9572072072072073 	300.0411264388798 	0.1191262536705884 	101373.6281322999
-0.9547047047047047 	300.0412562422997 	0.1195022242339556 	101373.7816159982
-0.9522022022022023 	300.0413784386699 	0.1198562128968096 	101373.9261252568
-0.9496996996996998 	300.0414930077242 	0.1201881572124763 	101374.0616349487
-0.9471971971971973 	300.0415999423095 	0.1204979981446313 	101374.188121441
-0.9446946946946947 	300.041699236778 	0.1207856751664359 	101374.3055593981
-0.9421921921921923 	300.0417908818496 	0.1210511353307157 	101374.4139270408
-0.93968968968969 	300.0418748589064 	0.1212943319506421 	101374.5132059292
-0.9371871871871872 	300.0419511385257 	0.121515216876642 	101374.603376069
-0.9346846846846848 	300.0420196908961 	0.1217137467797926 	101374.6844191772
-0.9321821821821823 	300.0420804952854 	0.1218898876958653 	101374.7563220073
-0.9296796796796799 	300.0421335397929 	0.1220436074910334 	101374.81907176
-0.9271771771771771 	300.0421788195016 	0.1221748742327788 	101374.8726546051
-0.9246746746746748 	300.0422163375063 	0.1222836636628204 	101374.9170605774
-0.9221721721721724 	300.0422461011053 	0.1223699598015063 	101374.9522839337
-0.9196696696696698 	300.0422681128243 	0.1224337468618294 	101374.9783181398
-0.9171671671671672 	300.0422823686768 	0.1224750083808868 	101374.9951556599
-0.9146646646646649 	300.0422888636871 	0.1224937377786659 	101375.0027938937
-0.9121621621621623 	300.0422875936565 	0.1224899356982112 	101375.0012344949
-0.9096596596596597 	300.042278547905 	0.122463594746813 	101374.9904735717
-0.9071571571571573 	300.0422617184089 	0.1224147095626266 	101374.9705072176
-0.9046546546546547 	300.0422371087338 	0.122343298063008 	101374.941343754
-0.9021521521521524 	300.0422047269755 	0.1222493845563188 	101374.9029959507
-0.8996496496496498 	300.0421645717073 	0.1221329725146519 	101374.8554632483
-0.8971471471471473 	300.0421166431151 	0.1219940713799478 	101374.7987458701
-0.894644644644645 	300.0420609615836 	0.1218327289541483 	101374.7328672791
-0.892142142142142 	300.0419975453773 	0.1216489856983716 	101374.6578478854
-0.8896396396396397 	300.0419263892371 	0.1214428387926369 	101374.5736802354
-0.8871371371371374 	300.0418475002318 	0.1212143151428201 	101374.4803716303
-0.8846346346346349 	300.0417609183927 	0.1209635055455618 	101374.3779683093
-0.8821321321321324 	300.0416666634194 	0.1206904572491797 	101374.2664927613
-0.8796296296296297 	300.0415647179603 	0.1203951496951723 	101374.1459239162
-0.8771271271271271 	300.0414551013909 	0.1200776435548859 	101374.016284291
-0.8746246246246248 	300.0413378803456 	0.1197380891667695 	101373.8776523206
-0.8721221221221224 	300.0412130703568 	0.119376528585259 	101373.7300462173
-0.8696196196196196 	300.0410806337979 	0.1189929068692723 	101373.573421376
-0.8671171171171175 	300.0409406071855 	0.1185873283373707 	101373.407820922
-0.8646146146146148 	300.0407930944886 	0.118160024934605 	101373.2333678547
-0.8621121121121121 	300.0406381046714 	0.1177110258207514 	101373.0500725574
-0.8596096096096097 	300.0404755644836 	0.1172402060515532 	101372.8578484858
-0.857107107107107 	300.0403055249259 	0.1167477105160174 	101372.6567562243
-0.8546046046046049 	300.0401281479925 	0.1162338985779661 	101372.4469871731
-0.8521021021021022 	300.039943446006 	0.1156988034201415 	101372.2285558413
-0.8495995995995997 	300.0397512835527 	0.1151421693877774 	101372.0013022358
-0.8470970970970974 	300.0395517030409 	0.114564136209906 	101371.7652766869
-0.8445945945945946 	300.0393449563034 	0.1139652662825381 	101371.5207769658
-0.8420920920920922 	300.039131104303 	0.113345690782765 	101371.2678749755
-0.8395895895895897 	300.0389099175992 	0.112704942798344 	101371.0062995795
-0.8370870870870872 	300.0386813538627 	0.1120429934471735 	101370.7360009434
-0.8345845845845846 	300.0384457740316 	0.1113606676155003 	101370.457405995
-0.8320820820820823 	300.0382034032551 	0.1106584491264306 	101370.1707808156
-0.8295795795795798 	300.0379539343065 	0.1099356715485544 	101369.8757618779
-0.8270770770770772 	300.0376970809643 	0.1091917761059508 	101369.5720110677
-0.8245745745745746 	300.0374332240175 	0.1084276792658 	101369.259979156
-0.8220720720720721 	300.0371629406641 	0.1076446619668366 	101368.9403484067
-0.8195695695695699 	300.0368860585314 	0.1068423089582542 	101368.6129145501
-0.817067067067067 	300.0366018825404 	0.1060191106924889 	101368.2768559147
-0.8145645645645651 	300.0363104287101 	0.1051752198413619 	101367.9321920924
-0.8120620620620621 	300.0360126597836 	0.1043128668146514 	101367.5800617015
-0.8095595595595597 	300.0357091011425 	0.1034331883862469 	101367.221085398
-0.8070570570570572 	300.0353989167496 	0.1025342428665592 	101366.8542741344
-0.8045545545545546 	300.0350811186831 	0.101613872240298 	101366.4784602406
-0.8020520520520523 	300.034756292499 	0.1006735792790591 	101366.0943372367
-0.7995495495495494 	300.0344260818617 	0.0997171836017727 	101365.7038487088
-0.7970470470470474 	300.0340908466222 	0.09874540500918336 	101365.3074189015
-0.7945445445445446 	300.0337489000115 	0.09775426833478831 	101364.9030526191
-0.7920420420420423 	300.0333988085295 	0.09674057700924842 	101364.4890560509
-0.7895395395395397 	300.0330417512541 	0.09570731052658812 	101364.0668251167
-0.7870370370370371 	300.0326803788085 	0.09466073807930693 	101363.6394938469
-0.7845345345345348 	300.0323152792739 	0.09360207615781228 	101363.2077555208
-0.7820320320320323 	300.0319438080608 	0.09252493345744014 	101362.7684818633
-0.7795295295295296 	300.0315633238578 	0.09142317159366706 	101362.3185514075
-0.7770270270270272 	300.0311749739271 	0.09029983226133063 	101361.8593233786
-0.7745245245245247 	300.0307829162671 	0.08916501550567331 	101361.3957147641
-0.7720220220220222 	300.0303893790287 	0.08802390637226867 	101360.9303574518
-0.7695195195195199 	300.0299914971359 	0.08686932880268305 	101360.4598610034
-0.767017017017017 	300.029584232082 	0.08568907541396539 	101359.9782685104
-0.7645145145145147 	300.0291664463602 	0.08448070524313939 	101359.4842390342
-0.7620120120120122 	300.0287430058062 	0.08325643288482694 	101358.9835288801
-0.7595095095095097 	300.0283199170792 	0.08203098495036062 	101358.4832385975
-0.7570070070070072 	300.0278975126782 	0.0808048701018384 	101357.9837563827
-0.7545045045045048 	300.0274693693519 	0.07956195695939826 	101357.4774847412
-0.7520020020020022 	300.0270287182726 	0.0782855638298879 	101356.9564231844
-0.7494994994994997 	300.0265759331356 	0.0769770275670129 	101356.4210192781
-0.7469969969969972 	300.0261190932026 	0.07565686401631987 	101355.880829001
-0.7444944944944945 	300.0256664838427 	0.07434581354782858 	101355.3456458173
-0.7419919919919924 	300.0252182095256 	0.07304380288763072 	101354.8155865425
-0.7394894894894897 	300.024765309523 	0.07172790414642542 	101354.2800524447
-0.7369869869869872 	300.0242976735921 	0.0703725423622189 	101353.727092269
-0.7344844844844846 	300.0238136497621 	0.06897389117744263 	101353.1547604473
-0.7319819819819822 	300.023322438143 	0.0675558061329922 	101352.5739403222
-0.7294794794794797 	300.0228367474398 	0.06615092183778291 	101351.9996568668
-0.7269769769769773 	300.0223619118266 	0.06477272345092282 	101351.4382092987
-0.7244744744744747 	300.0218908284392 	0.0634025717334335 	101350.8811920728
-0.721971971971972 	300.0214091080408 	0.0620030947757348 	101350.3115909385
-0.7194694694694695 	300.0209063964542 	0.06054758925348602 	101349.717169988
-0.7169669669669674 	300.0203849361888 	0.05904224253966554 	101349.1005901735
-0.7144644644644647 	300.0198586483554 	0.05752367261476213 	101348.4783160542
-0.711961961961962 	300.019343336557 	0.05603331957293377 	101347.8690299866
-0.7094594594594597 	300.0188452890434 	0.05458756018263151 	101347.2801577508
-0.7069569569569573 	300.0183564919727 	0.0531650431026401 	101346.7022153729
-0.7044544544544545 	300.0178596329603 	0.05171983948890154 	101346.1147312468
-0.7019519519519523 	300.0173393267399 	0.05021119874328007 	101345.4995204853
-0.6994494494494495 	300.0167921828065 	0.04863032361266016 	101344.8525846546
-0.6969469469469471 	300.0162293972429 	0.04700729078053307 	101344.187169653
-0.6944444444444446 	300.015670414263 	0.04539420958467643 	101343.5262666779
-0.6919419419419421 	300.0151317265847 	0.04383533523372347 	101342.8893692906
-0.6894394394394396 	300.0146175476559 	0.04234196523603925 	101342.2814490618
-0.6869369369369374 	300.0141174404174 	0.04088583959581892 	101341.6901570403
-0.6844344344344344 	300.0136116693832 	0.03941343040568814 	101341.0921568941
-0.6819319319319321 	300.0130810284288 	0.03787257911590111 	101340.4647454771
-0.6794294294294296 	300.0125161465534 	0.03623787721610536 	101339.7968527227
-0.6769269269269272 	300.0119220086376 	0.03452305543976143 	101339.0943824624
-0.6744244244244245 	300.0113158980675 	0.03277545628908945 	101338.3777749882
-0.6719219219219222 	300.0107200364361 	0.03105605579584823 	101337.673302777
-0.6694194194194195 	300.0101525005655 	0.02941465016769208 	101337.0023315301
-0.6669169169169172 	300.0096203455411 	0.02787079647049115 	101336.3731929961
-0.6644144144144146 	300.0091172755508 	0.0264071506886433 	101335.778434734
-0.661911911911912 	300.0086261131481 	0.02497601722448074 	101335.1977423613
-0.6594094094094097 	300.0081245037983 	0.02351503740656585 	101334.6046858036
-0.656906906906907 	300.0075915740242 	0.02196580965874325 	101333.9745908052
-0.6544044044044046 	300.0070135971194 	0.02028987222471153 	101333.2912358123
-0.6519019019019021 	300.0063874044931 	0.01847838066982202 	101332.5508833483
-0.6493993993993996 	300.0057210217878 	0.01655395770913291 	101331.7630297943
-0.6468968968968971 	300.0050316957178 	0.01456519413535569 	101330.9480707019
-0.6443943943943946 	300.0043420498256 	0.01257591674727526 	101330.1327547251
-0.6418918918918921 	300.0036755106214 	0.01065253770440247 	101329.3447760654
-0.6393893893893897 	300.0030524317947 	0.008853265961137526 	101328.6081937098
-0.6368868868868871 	300.0024879021291 	0.007221621905120281 	101327.940841054
-0.6343843843843846 	300.0019910609756 	0.005784222897823097 	101327.3535176145
-0.6318818818818821 	300.0015654230544 	0.004551573601864891 	101326.850374056
-0.6293793793793795 	300.0012098133442 	0.00352066046216617 	101326.4300173774
-0.6268768768768773 	300.0009195795263 	0.002678396550645635 	101326.0869451465
-0.6243743743743745 	300.0006877998225 	0.002005168956644478 	101325.8130138679
-0.6218718718718721 	300.000506510779 	0.001478020715723769 	101325.5987478126
-0.6193693693693696 	300.0003674894319 	0.001073211373248707 	101325.4343770667
-0.6168668668668671 	300.0002627687262 	0.0007680264991052373 	101325.3105816594
-0.6143643643643645 	300.0001852550247 	0.0005419371936039104 	101325.2189619012
-0.6118618618618621 	300.0001288360738 	0.0003772159085743577 	101325.1522764285
-0.6093593593593596 	300.0000884198819 	0.0002591034407980919 	101325.1045061274
-0.6068568568568571 	300.0000599057552 	0.0001756954455985065 	101325.0708038986
-0.6043543543543546 	300.0000400819548 	0.0001176541768594184 	101325.0473734255
-0.6018518518518521 	300.0000264936901 	7.78329733753406e-05 	101325.0313130492
-0.5993493493493496 	300.000017305733 	5.088279434950297e-05 	101325.0204536414
-0.5968468468468471 	300.0000111743905 	3.288220570514134e-05 	101325.0132069316
-0.5943443443443446 	300.0000071345706 	2.101146498805431e-05 	101325.0084322139
-0.591841841841842 	300.0000045053702 	1.327922126163982e-05 	101325.0053248224
-0.5893393393393397 	300.0000028146602 	8.302704782630232e-06 	101325.0033266112
-0.5868368368368371 	300.0000017400911 	5.13690121928235e-06 	101325.002056537
-0.5843343343343346 	300.0000010647677 	3.145701317244687e-06 	101325.0012583682
-0.5818318318318321 	300.0000006450218 	1.907047685462589e-06 	101325.0007622716
-0.5793293293293297 	300.0000003868688 	1.14478981414697e-06 	101325.0004572274
-0.5768268268268271 	300.0000002298387 	6.806016714478347e-07 	101325.0002716188
-0.5743243243243245 	300.0000001352732 	4.008207415003285e-07 	101325.0001598357
-0.5718218218218221 	300.0000000788755 	2.338681789266078e-07 	101325.0000931858
-0.5693193193193196 	300.000000045603 	1.352187208350713e-07 	101325.0000538339
-0.5668168168168171 	300.0000000260706 	7.748556248400559e-08 	101325.0000308217
-0.5643143143143147 	300.0000000147513 	4.401349294404144e-08 	101325.0000174905
-0.5618118118118121 	300.0000000083466 	2.478777753014281e-08 	101325.0000098389
-0.5593093093093094 	300.0000000046847 	1.384222745102924e-08 	101325.0000054868
-0.5568068068068072 	300.0000000025934 	7.668033515473152e-09 	101325.0000030329
-0.5543043043043046 	300.0000000014352 	4.212715009724973e-09 	101325.0000016612
-0.551801801801802 	300.0000000007232 	2.297505151402928e-09 	101325.000000901
-0.5492992992992995 	300.0000000004121 	1.241639669538485e-09 	101325.0000004831
-0.5467967967967969 	300.0000000002371 	6.674511735003e-10 	101325.000000255
-0.5442942942942947 	300.0000000001272 	3.54859951789955e-10 	101325.0000001315
-0.5417917917917919 	300.0000000000225 	1.893295720755142e-10 	101325.0000000654
-0.5392892892892895 	299.9999999999602 	9.773867471116506e-11 	101325.0000000301
-0.536786786786787 	299.9999999999674 	5.289463267377947e-11 	101325.0000000115
-0.5342842842842846 	299.999999999964 	2.524699803426376e-11 	101325.0000000016
-0.531781781781782 	299.9999999999328 	1.580583759367815e-11 	101324.9999999966
-0.5292792792792794 	299.9999999999254 	5.170022996121363e-12 	101324.9999999942
-0.526776776776777 	299.9999999999105 	6.887110285377927e-12 	101324.9999999932
-0.5242742742742745 	299.9999999999769 	3.350498776734601e-12 	101324.9999999925
-0.521771771771772 	300.0000000000242 	7.018160564806402e-12 	101324.9999999922
-0.5192692692692695 	299.9999999999597 	4.320019383828536e-12 	101324.999999992
-0.516766766766767 	300.0000000000038 	7.179521980335687e-12 	101324.9999999917
-0.5142642642642645 	299.9999999999775 	3.928565910421901e-12 	101324.9999999915
-0.511761761761762 	299.999999999953 	5.941895921828673e-12 	101324.9999999914
-0.5092592592592596 	299.9999999999681 	3.347636625928527e-12 	101324.9999999911
-0.506756756756757 	299.9999999999339 	4.888236988783388e-12 	101324.9999999908
-0.5042542542542544 	299.9999999999915 	2.232723534158098e-12 	101324.9999999908
-0.5017517517517521 	300.0000000000254 	4.540388255559394e-12 	101324.9999999909
-0.4992492492492494 	300.0000000000315 	1.604218942733707e-12 	101324.9999999913
-0.496746746746747 	299.9999999999863 	3.382891603247998e-12 	101324.9999999916
-0.4942442442442445 	299.9999999999458 	1.035110992510613e-12 	101324.9999999919
-0.4917417417417421 	299.9999999999428 	4.107433155635375e-12 	101324.9999999918
-0.4892392392392395 	299.9999999999571 	1.970883981075674e-12 	101324.9999999916
-0.486736736736737 	299.9999999999604 	4.61456914629235e-12 	101324.9999999915
-0.4842342342342345 	299.9999999999258 	2.178027188194362e-12 	101324.9999999916
-0.481731731731732 	300.0000000000297 	5.499865228909464e-12 	101324.9999999914
-0.4792292292292296 	300.0000000000188 	2.945345334046804e-12 	101324.9999999915
-0.4767267267267268 	299.9999999999455 	7.020725713708965e-12 	101324.9999999914
-0.4742242242242246 	299.9999999999886 	2.086165542674181e-12 	101324.9999999915
-0.471721721721722 	299.9999999999509 	5.734532509645083e-12 	101324.9999999917
-0.4692192192192195 	299.9999999999665 	1.859174784517894e-12 	101324.9999999918
-0.4667167167167169 	299.9999999999119 	4.154723349753824e-12 	101324.9999999917
-0.4642142142142145 	299.9999999999955 	1.32532783745032e-12 	101324.9999999918
-0.461711711711712 	300.0000000000149 	4.404934740389243e-12 	101324.999999992
-0.4592092092092094 	300.0000000000124 	2.42212235766344e-12 	101324.9999999922
-0.456706706706707 	300.0000000000488 	4.142029587385134e-12 	101324.9999999921
-0.4542042042042045 	299.9999999999383 	2.625400948546631e-12 	101324.9999999918
-0.451701701701702 	299.9999999999534 	4.131664856854433e-12 	101324.9999999917
-0.4491991991991995 	299.9999999999573 	2.485722839463442e-12 	101324.9999999916
-0.4466966966966969 	299.9999999999432 	4.599850571376405e-12 	101324.9999999917
-0.4441941941941945 	299.9999999999934 	2.230619770646934e-12 	101324.9999999914
-0.441691691691692 	299.9999999999566 	5.486089930911397e-12 	101324.9999999916
-0.4391891891891895 	299.9999999999846 	1.361902166730473e-12 	101324.9999999915
-0.436686686686687 	299.9999999999667 	5.713592774629405e-12 	101324.9999999915
-0.4341841841841846 	299.9999999999968 	1.822472696052966e-12 	101324.9999999915
-0.431681681681682 	299.9999999999503 	5.181899958127419e-12 	101324.9999999917
-0.4291791791791794 	299.9999999999093 	1.329288954951915e-12 	101324.9999999919
-0.426676676676677 	299.9999999999166 	4.428326290741664e-12 	101324.9999999918
-0.4241741741741744 	299.9999999999666 	1.749999531857645e-12 	101324.9999999916
-0.421671671671672 	300.0000000000031 	3.704705180013149e-12 	101324.9999999915
-0.4191691691691694 	300.000000000045 	1.810753780446285e-12 	101324.9999999914
-0.4166666666666669 	300.0000000000528 	3.974394121143557e-12 	101324.9999999913
-0.4141641641641645 	299.9999999999347 	2.626736693429144e-12 	101324.9999999912
-0.411661661661662 	300.0000000000042 	3.161322141437623e-12 	101324.9999999915
-0.4091591591591594 	300.0000000000059 	2.08463229201488e-12 	101324.9999999913
-0.406656656656657 	299.9999999999395 	3.456082812740554e-12 	101324.9999999915
-0.4041541541541545 	300.0000000000125 	1.912171434027774e-12 	101324.9999999915
-0.401651651651652 	299.9999999999229 	4.03963282478009e-12 	101324.9999999914
-0.3991491491491494 	300.0000000000005 	1.605110623217065e-12 	101324.9999999913
-0.396646646646647 	299.9999999999563 	4.122588661996373e-12 	101324.9999999913
-0.3941441441441444 	299.9999999999734 	2.347036768344145e-12 	101324.9999999911
-0.3916416416416419 	299.9999999999307 	4.013284507811171e-12 	101324.9999999909
-0.3891391391391395 	299.9999999999585 	1.213356813127653e-12 	101324.9999999907
-0.3866366366366368 	299.9999999999551 	2.921441352855372e-12 	101324.9999999907
-0.3841341341341344 	299.9999999999962 	1.171191907560993e-12 	101324.9999999909
-0.381631631631632 	299.9999999999543 	2.625087726565688e-12 	101324.9999999911
-0.3791291291291294 	300.0000000000043 	1.898254707418874e-12 	101324.9999999913
-0.3766266266266269 	300.0000000000185 	1.988003029879015e-12 	101324.9999999913
-0.3741241241241244 	300.0000000000225 	3.065386043902898e-12 	101324.9999999916
-0.371621621621622 	300.0000000000145 	1.860778523768708e-12 	101324.9999999918
-0.3691191191191194 	300.0000000000031 	4.950950696624378e-12 	101324.9999999921
-0.366616616616617 	300.0000000000082 	2.21675670077942e-12 	101324.9999999923
-0.3641141141141143 	299.9999999999685 	4.712996302802444e-12 	101324.999999992
-0.3616116116116119 	299.9999999999478 	2.377642546989363e-12 	101324.999999992
-0.3591091091091095 	299.9999999999873 	3.057569803658111e-12 	101324.999999992
-0.356606606606607 	299.9999999999862 	2.481112903491843e-12 	101324.9999999921
-0.3541041041041044 	299.9999999999843 	2.52166727988234e-12 	101324.999999992
-0.3516016016016019 	300.000000000002 	3.184290192364676e-12 	101324.9999999919
-0.3490990990990994 	299.9999999999845 	1.904494013479871e-12 	101324.9999999919
-0.346596596596597 	300.0000000000406 	4.324386468013122e-12 	101324.9999999919
-0.3440940940940944 	300.0000000000493 	2.442868824788138e-12 	101324.999999992
-0.3415915915915919 	300.0000000000177 	4.614237966821318e-12 	101324.9999999919
-0.3390890890890895 	299.9999999999802 	2.967885298775397e-12 	101324.9999999918
-0.3365865865865869 	300.0000000000194 	5.090242269367378e-12 	101324.9999999921
-0.3340840840840844 	300.0000000000055 	3.94628343391511e-12 	101324.9999999923
-0.3315815815815819 	300.0000000000264 	4.938741608485713e-12 	101324.9999999921
-0.3290790790790794 	300.0000000000155 	4.092574242693056e-12 	101324.9999999921
-0.3265765765765769 	299.9999999999331 	5.226458405623303e-12 	101324.9999999919
-0.3240740740740744 	299.999999999998 	3.976306567094611e-12 	101324.9999999921
-0.3215715715715718 	300.0000000000073 	6.135994954333925e-12 	101324.9999999919
-0.3190690690690695 	299.9999999999284 	3.952675977529785e-12 	101324.9999999915
-0.3165665665665668 	299.9999999999894 	5.540714400121225e-12 	101324.9999999919
-0.3140640640640644 	300.0000000000014 	2.613135160912087e-12 	101324.9999999916
-0.311561561561562 	299.9999999999284 	5.870673434212212e-12 	101324.9999999919
-0.3090590590590593 	299.9999999999949 	1.251024216701493e-12 	101324.9999999921
-0.3065565565565568 	300.0000000000028 	6.618716638318984e-12 	101324.9999999921
-0.3040540540540545 	300.0000000000165 	1.369810864404816e-12 	101324.9999999919
-0.3015515515515518 	300.0000000000284 	5.949127310397904e-12 	101324.9999999915
-0.2990490490490494 	299.9999999999457 	1.859351969721927e-12 	101324.9999999915
-0.2965465465465469 	299.9999999999832 	3.626641687300414e-12 	101324.9999999915
-0.2940440440440444 	299.9999999999999 	1.523795702805461e-12 	101324.9999999916
-0.2915415415415418 	300.0000000000019 	2.670515043864196e-12 	101324.9999999917
-0.2890390390390395 	300.0000000000015 	3.101664313490171e-12 	101324.9999999915
-0.2865365365365368 	299.9999999999771 	2.467760784812856e-12 	101324.9999999914
-0.2840340340340343 	300.000000000003 	3.949216785430645e-12 	101324.9999999915
-0.2815315315315318 	299.9999999999302 	2.133311496848667e-12 	101324.9999999915
-0.2790290290290295 	299.999999999959 	3.339854785897789e-12 	101324.9999999917
-0.2765265265265269 	300.0000000000101 	2.736024287431409e-12 	101324.9999999917
-0.2740240240240244 	300.0000000000302 	3.456814928967864e-12 	101324.9999999916
-0.2715215215215219 	300.0000000000127 	3.287334994228161e-12 	101324.9999999915
-0.2690190190190194 	299.9999999999454 	2.878303054200521e-12 	101324.9999999913
-0.2665165165165169 	299.9999999999957 	4.002551327305511e-12 	101324.9999999914
-0.2640140140140144 	299.9999999999676 	2.55944881748719e-12 	101324.9999999914
-0.2615115115115119 	299.9999999999971 	4.101319628347938e-12 	101324.9999999913
-0.2590090090090094 	299.9999999999376 	1.89170536072502e-12 	101324.9999999913
-0.2565065065065068 	299.999999999993 	2.995046508307951e-12 	101324.9999999912
-0.2540040040040044 	299.9999999999974 	2.868196801046245e-12 	101324.9999999915
-0.2515015015015019 	300.0000000000389 	2.20054892046089e-12 	101324.9999999913
-0.2489989989989994 	300.0000000000438 	4.431042156956502e-12 	101324.9999999914
-0.2464964964964968 	299.9999999999924 	1.648820245273069e-12 	101324.9999999916
-0.2439939939939944 	299.9999999999997 	5.414337097020324e-12 	101324.9999999918
-0.2414914914914919 	299.9999999999732 	8.967926088349134e-13 	101324.9999999921
-0.2389889889889893 	300.000000000005 	4.926647680862473e-12 	101324.9999999922
-0.2364864864864869 	300.0000000000223 	1.552467977435706e-12 	101324.9999999923
-0.2339839839839843 	299.999999999929 	5.549389358432198e-12 	101324.9999999919
-0.2314814814814819 	299.9999999999827 	1.524085129340075e-12 	101324.9999999917
-0.2289789789789792 	299.9999999999283 	4.720973661769011e-12 	101324.9999999917
-0.2264764764764769 	299.9999999999497 	2.484213673791533e-12 	101324.9999999918
-0.2239739739739743 	299.9999999999638 	4.607551855297543e-12 	101324.9999999918
-0.2214714714714718 	299.9999999999443 	3.288309659522357e-12 	101324.9999999916
-0.2189689689689693 	299.999999999974 	2.296267357807393e-12 	101324.9999999917
-0.2164664664664669 	299.9999999999804 	3.01835316613864e-12 	101324.9999999917
-0.2139639639639643 	299.9999999999321 	1.308289765908863e-12 	101324.9999999915
-0.2114614614614618 	299.9999999999745 	3.055824587624798e-12 	101324.9999999913
-0.2089589589589593 	299.9999999999908 	3.315919265933427e-12 	101324.9999999913
-0.2064564564564568 	299.9999999999897 	3.475673754013432e-12 	101324.9999999912
-0.2039539539539543 	299.9999999999112 	4.098511700231705e-12 	101324.9999999913
-0.2014514514514518 	299.9999999999528 	2.198482271127501e-12 	101324.9999999912
-0.1989489489489494 	299.9999999999741 	4.855837958797207e-12 	101324.9999999912
-0.1964464464464468 	299.9999999999934 	1.154136672860071e-12 	101324.9999999913
-0.1939439439439443 	299.9999999999833 	4.523041166401838e-12 	101324.9999999917
-0.1914414414414418 	299.9999999999203 	1.77537461115134e-12 	101324.999999992
-0.1889389389389393 	300.0000000000057 	3.262694317533105e-12 	101324.9999999919
-0.1864364364364368 	300.0000000000381 	2.640984232179514e-12 	101324.999999992
-0.1839339339339343 	299.9999999999741 	4.022019720642015e-12 	101324.9999999919
-0.1814314314314318 	299.9999999999964 	2.762335512059243e-12 	101324.9999999919
-0.1789289289289293 	299.9999999999125 	3.862768897131835e-12 	101324.9999999915
-0.1764264264264268 	299.9999999999786 	1.489011268710605e-12 	101324.9999999918
-0.1739239239239243 	299.9999999999036 	3.65935875469215e-12 	101324.9999999921
-0.1714214214214218 	299.9999999999859 	6.040831711789164e-13 	101324.9999999922
-0.1689189189189193 	299.9999999999595 	4.05647783176547e-12 	101324.999999992
-0.1664164164164168 	300.0000000000086 	2.184717320431209e-12 	101324.9999999917
-0.1639139139139143 	299.9999999999924 	5.351807050107771e-12 	101324.999999992
-0.1614114114114118 	300.0000000000313 	3.812726405545091e-12 	101324.9999999919
-0.1589089089089093 	299.9999999999966 	6.476002946789363e-12 	101324.999999992
-0.1564064064064068 	299.9999999999874 	5.300826720446498e-12 	101324.9999999921
-0.1539039039039043 	299.999999999992 	6.768632176215721e-12 	101324.9999999922
-0.1514014014014018 	300.0000000000263 	4.363849960348127e-12 	101324.9999999925
-0.1488988988988993 	299.9999999999976 	6.481069513054127e-12 	101324.9999999926
-0.1463963963963968 	300.0000000000059 	3.2087291912106e-12 	101324.9999999929
-0.1438938938938943 	299.9999999999563 	4.415784707467859e-12 	101324.9999999928
-0.1413913913913918 	299.9999999999328 	2.818954408485592e-12 	101324.9999999928
-0.1388888888888893 	299.9999999999811 	2.693262857186059e-12 	101324.9999999924
-0.1363863863863868 	299.9999999998971 	1.760785205352013e-12 	101324.9999999924
-0.1338838838838843 	299.9999999999256 	1.554764152548502e-12 	101324.9999999924
-0.1313813813813818 	299.9999999999917 	6.447621960428013e-13 	101324.9999999923
-0.1288788788788793 	299.9999999999719 	2.416911758652256e-12 	101324.9999999922
-0.1263763763763768 	299.9999999999695 	2.900000751205194e-13 	101324.9999999926
-0.1238738738738743 	299.9999999999288 	3.377592417976072e-12 	101324.9999999924
-0.1213713713713717 	299.9999999999779 	4.961658911480417e-13 	101324.9999999924
-0.1188688688688693 	300.000000000006 	3.956179873261468e-12 	101324.9999999925
-0.1163663663663668 	299.9999999999105 	9.548061168596286e-13 	101324.9999999922
-0.1138638638638643 	299.9999999999947 	4.653108863683539e-12 	101324.9999999921
-0.1113613613613618 	299.9999999999869 	1.07594149880868e-12 	101324.9999999921
-0.1088588588588592 	299.9999999999797 	5.046537340953104e-12 	101324.9999999921
-0.1063563563563568 	299.9999999999516 	8.695817697434993e-13 	101324.999999992
-0.1038538538538543 	299.9999999999749 	4.100204706176649e-12 	101324.999999992
-0.1013513513513517 	300.0000000000143 	7.579411369873495e-13 	101324.9999999921
-0.09884884884884926 	299.9999999999409 	3.338738095321114e-12 	101324.9999999919
-0.09634634634634676 	299.9999999999027 	6.936083759710787e-13 	101324.9999999922
-0.09384384384384425 	299.9999999999334 	2.3279084331656e-12 	101324.9999999924
-0.09134134134134177 	300.0000000000225 	1.317950286002654e-13 	101324.9999999922
-0.08883883883883925 	300.000000000005 	1.256874113273797e-12 	101324.999999992
-0.08633633633633674 	299.9999999999583 	5.993074943624005e-13 	101324.9999999919
-0.08383383383383426 	300.000000000008 	1.740840435661951e-12 	101324.9999999918
-0.08133133133133173 	299.999999999968 	2.833971462953914e-12 	101324.9999999918
-0.07882882882882926 	299.9999999998968 	3.576919233572631e-12 	101324.9999999919
-0.07632632632632676 	299.9999999999604 	3.411999184610555e-12 	101324.9999999919
-0.07382382382382424 	299.9999999999027 	3.204008127357009e-12 	101324.9999999922
-0.07132132132132173 	300.0000000000143 	2.515396172437286e-12 	101324.9999999923
-0.06881881881881925 	299.9999999999688 	2.505178036405618e-12 	101324.9999999926
-0.06631631631631671 	299.9999999999038 	2.322013696385282e-12 	101324.9999999929
-0.06381381381381425 	299.9999999999579 	2.102457526842429e-12 	101324.9999999927
-0.06131131131131173 	299.9999999999608 	2.212718042714502e-12 	101324.9999999929
-0.05880880880880923 	299.9999999999165 	1.706294202005989e-12 	101324.9999999928
-0.05630630630630672 	299.9999999999726 	9.176755836346145e-13 	101324.9999999928
-0.05380380380380424 	300.0000000000152 	9.879301917200288e-13 	101324.9999999927
-0.05130130130130173 	300.0000000000104 	9.079112338350099e-13 	101324.9999999925
-0.04879879879879922 	299.9999999999483 	1.549743758763934e-12 	101324.9999999925
-0.04629629629629672 	299.9999999999368 	1.482386861049724e-12 	101324.9999999923
-0.04379379379379422 	299.9999999999226 	1.755253931438672e-12 	101324.9999999923
-0.04129129129129173 	299.9999999999846 	8.939720028200555e-13 	101324.9999999921
-0.03878878878878922 	299.9999999999856 	1.011312412307069e-12 	101324.9999999922
-0.03628628628628671 	299.9999999999853 	8.032799083067031e-13 	101324.9999999924
-0.03378378378378422 	299.9999999999272 	1.274509990975566e-12 	101324.9999999922
-0.03128128128128172 	299.999999999967 	7.975128154869783e-13 	101324.9999999921
-0.02877877877877922 	299.9999999999672 	2.067355187096202e-12 	101324.9999999922
-0.0262762762762767 	299.999999999908 	1.942677193763192e-12 	101324.999999992
-0.02377377377377422 	300.0000000000208 	2.341164079994375e-12 	101324.9999999919
-0.0212712712712717 	299.9999999999077 	2.848386982064565e-12 	101324.9999999918
-0.01876876876876921 	299.9999999999682 	2.772919509397735e-12 	101324.9999999916
-0.01626626626626671 	300.0000000000127 	2.804300281378741e-12 	101324.9999999913
-0.0137637637637642 	299.9999999999671 	1.772014149138196e-12 	101324.9999999916
-0.0112612612612617 	300.0000000000159 	1.037764825750522e-12 	101324.9999999917
-0.008758758758759198 	299.999999999997 	1.942840381337168e-13 	101324.9999999917
-0.006256256256256697 	299.9999999998917 	1.739307223730764e-13 	101324.9999999915
-0.003753753753754195 	299.9999999999549 	1.510509901957522e-12 	101324.9999999916
-0.001251251251251693 	299.9999999999323 	1.227784517979916e-12 	101324.999999992
0.00125125125125081 	299.9999999999593 	1.205941242648193e-12 	101324.9999999921
0.003753753753753312 	299.9999999999663 	6.901346780456906e-14 	101324.9999999922
0.006256256256255817 	299.9999999998966 	5.849783180870934e-13 	101324.9999999921
0.008758758758758317 	299.9999999999864 	1.988259953416623e-13 	101324.9999999922
0.01126126126126082 	300.0000000000034 	1.148943465484947e-13 	101324.9999999925
0.01376376376376332 	299.9999999999694 	5.212276434290929e-13 	101324.9999999928
0.01626626626626582 	300.000000000009 	6.10887160927731e-13 	101324.9999999925
0.01876876876876833 	299.9999999999554 	2.350410819158961e-14 	101324.9999999927
0.02127127127127083 	299.9999999999688 	4.120406960079198e-13 	101324.9999999928
0.02377377377377332 	299.9999999999972 	3.283914392030916e-13 	101324.9999999926
0.02627627627627583 	299.9999999999059 	3.124383658435072e-14 	101324.9999999926
0.02877877877877833 	300.0000000000137 	3.216432989450548e-13 	101324.9999999926
0.03128128128128083 	299.9999999999552 	2.508147757445604e-13 	101324.9999999926
0.03378378378378333 	299.9999999999101 	7.839253355979944e-13 	101324.9999999921
0.03628628628628584 	299.9999999999687 	1.008027685765512e-12 	101324.9999999919
0.03878878878878834 	299.9999999999822 	1.417084863983334e-12 	101324.999999992
0.04129129129129084 	299.9999999999817 	1.620019235505757e-12 	101324.9999999921
0.04379379379379333 	299.9999999999536 	2.403778894370503e-12 	101324.9999999921
0.04629629629629585 	299.9999999998976 	1.468800180011737e-12 	101324.999999992
0.04879879879879834 	299.9999999999634 	2.075411719860727e-12 	101324.9999999921
0.05130130130130085 	300.0000000000119 	1.840716774338911e-12 	101324.999999992
0.05380380380380335 	300.0000000000171 	2.04614868027598e-12 	101324.9999999919
0.05630630630630584 	299.9999999999978 	1.396225730181466e-12 	101324.9999999919
0.05880880880880836 	299.9999999999216 	1.857048233218009e-12 	101324.9999999916
0.06131131131131085 	299.9999999999699 	2.128990780617517e-12 	101324.9999999917
0.06381381381381336 	299.9999999999666 	2.15671896856548e-12 	101324.9999999915
0.06631631631631586 	299.9999999998979 	1.8154637122235e-12 	101324.9999999916
0.06881881881881835 	299.9999999999595 	2.347026030667317e-12 	101324.9999999916
0.07132132132132088 	299.9999999999841 	2.045617346303646e-12 	101324.9999999917
0.07382382382382337 	299.9999999999035 	2.510089562594353e-12 	101324.9999999915
0.07632632632632587 	299.9999999999695 	2.09120686624236e-12 	101324.9999999916
0.07882882882882837 	299.9999999999399 	1.893947285928907e-12 	101324.9999999918
0.08133133133133086 	299.9999999999798 	2.192953316556691e-12 	101324.9999999921
0.08383383383383337 	299.9999999999854 	2.120191866047652e-12 	101324.9999999918
0.08633633633633589 	299.9999999999096 	2.07280552435423e-12 	101324.9999999917
0.08883883883883838 	300.0000000000029 	2.700392637838096e-12 	101324.9999999914
0.09134134134134086 	299.9999999999768 	2.566746586788621e-12 	101324.9999999916
0.09384384384384339 	299.9999999999013 	2.988638035151176e-12 	101324.9999999916
0.09634634634634588 	299.9999999999657 	3.253264093652554e-12 	101324.9999999913
0.09884884884884838 	299.9999999999766 	3.187456551866169e-12 	101324.9999999911
0.1013513513513509 	300.0000000000147 	2.905676602553956e-12 	101324.9999999908
0.1038538538538534 	299.9999999999605 	2.644587897734422e-12 	101324.9999999911
0.1063563563563559 	300.0000000000048 	2.78926193466084e-12 	101324.9999999911
0.1088588588588584 	300.0000000000264 	1.666232030105184e-12 	101324.999999991
0.1113613613613609 	299.9999999999309 	2.280143690551921e-12 	101324.9999999915
0.1138638638638634 	299.9999999999468 	2.639481348399098e-12 	101324.9999999915
0.1163663663663659 	299.9999999999516 	2.834025644147038e-12 	101324.9999999917
0.1188688688688684 	299.9999999999768 	2.473878107327523e-12 	101324.9999999918
0.1213713713713709 	300.0000000000051 	1.788645723817762e-12 	101324.9999999914
0.1238738738738734 	299.9999999999307 	1.417592337113533e-12 	101324.9999999913
0.1263763763763759 	299.9999999999845 	9.260504858415715e-13 	101324.9999999913
0.1288788788788784 	299.9999999999849 	6.896773446429935e-13 	101324.9999999913
0.1313813813813809 	299.9999999999837 	7.016600823205491e-13 	101324.9999999913
0.1338838838838834 	299.9999999999758 	8.663278766165117e-13 	101324.9999999914
0.1363863863863859 	300.0000000000155 	7.294698996038534e-14 	101324.9999999918
0.1388888888888884 	300.0000000000381 	6.662121480552098e-13 	101324.9999999918
0.1413913913913909 	300.0000000000081 	2.675825272631426e-13 	101324.999999992
0.1438938938938934 	299.9999999999925 	2.068233307688163e-12 	101324.9999999916
0.1463963963963959 	299.999999999959 	1.795485195398409e-12 	101324.9999999915
0.1488988988988985 	299.9999999999151 	3.491328878654306e-12 	101324.9999999914
0.1514014014014009 	299.9999999999745 	2.272554613970651e-12 	101324.9999999916
0.1539039039039035 	299.9999999999669 	4.766016151914497e-12 	101324.9999999916
0.1564064064064059 	299.9999999999333 	2.99514771761111e-12 	101324.9999999915
0.1589089089089084 	299.9999999999761 	6.883696089849983e-12 	101324.9999999913
0.1614114114114109 	299.9999999999711 	4.729321978669935e-12 	101324.9999999913
0.1639139139139134 	299.9999999999117 	6.654090486278928e-12 	101324.9999999913
0.166416416416416 	300.0000000000067 	5.312784007872082e-12 	101324.9999999913
0.1689189189189185 	300.0000000000308 	4.823836296932473e-12 	101324.9999999916
0.1714214214214209 	300.000000000006 	5.280413938540364e-12 	101324.9999999918
0.1739239239239235 	299.9999999999912 	3.227271558323517e-12 	101324.9999999918
0.1764264264264259 	299.9999999999739 	4.55099269616241e-12 	101324.999999992
0.1789289289289284 	300.0000000000064 	2.3663237713819e-12 	101324.9999999921
0.181431431431431 	299.9999999999671 	4.486633290194911e-12 	101324.9999999918
0.1839339339339334 	299.9999999999665 	2.501257936677096e-12 	101324.9999999919
0.186436436436436 	299.999999999931 	2.957396549173304e-12 	101324.9999999919
0.1889389389389385 	299.9999999999762 	2.657122955944216e-12 	101324.999999992
0.191441441441441 	299.9999999999734 	2.412207524686675e-12 	101324.9999999922
0.1939439439439434 	299.9999999999235 	3.455576327061894e-12 	101324.9999999924
0.196446446446446 	299.9999999999509 	1.952253794999637e-12 	101324.9999999921
0.1989489489489485 	299.9999999999613 	4.853485948546118e-12 	101324.999999992
0.2014514514514509 	299.9999999999881 	2.937829602839002e-12 	101324.999999992
0.2039539539539535 	299.9999999999982 	4.548437043563759e-12 	101324.999999992
0.2064564564564559 	299.9999999999556 	4.197342745997223e-12 	101324.9999999916
0.2089589589589585 	299.9999999999898 	4.868795449919827e-12 	101324.9999999918
0.211461461461461 	299.999999999933 	4.974771701963766e-12 	101324.9999999918
0.2139639639639635 	299.999999999972 	4.389605381508168e-12 	101324.9999999913
0.2164664664664659 	299.999999999998 	4.829917054999929e-12 	101324.9999999913
0.2189689689689684 	299.9999999999986 	2.420784482419025e-12 	101324.9999999916
0.221471471471471 	299.9999999999951 	4.679740710862311e-12 	101324.999999992
0.2239739739739735 	299.9999999999574 	2.274903516447874e-12 	101324.9999999921
0.226476476476476 	299.9999999999806 	4.212047262043805e-12 	101324.999999992
0.2289789789789785 	299.9999999999933 	2.956988912618148e-12 	101324.9999999921
0.231481481481481 	299.9999999999909 	2.781704138191071e-12 	101324.9999999919
0.2339839839839835 	299.9999999999847 	2.837131839831307e-12 	101324.999999992
0.236486486486486 	300.0000000000259 	2.078338004860965e-12 	101324.9999999918
0.2389889889889885 	300.000000000003 	3.37905334117762e-12 	101324.9999999917
0.241491491491491 	299.9999999999247 	1.478550292839831e-12 	101324.9999999917
0.2439939939939935 	299.9999999999767 	4.069479367014125e-12 	101324.9999999914
0.246496496496496 	299.9999999999935 	1.223282812129485e-12 	101324.9999999915
0.2489989989989985 	300.0000000000379 	2.902145664676104e-12 	101324.9999999914
0.251501501501501 	300.0000000000325 	2.02145993409027e-12 	101324.9999999913
0.2540040040040035 	299.999999999995 	1.685154669305459e-12 	101324.9999999912
0.256506506506506 	300.0000000000273 	1.955837586878886e-12 	101324.9999999912
0.2590090090090086 	299.9999999999201 	5.372707177845605e-13 	101324.9999999909
0.261511511511511 	299.9999999999959 	2.697119142207765e-12 	101324.9999999906
0.2640140140140135 	299.9999999999896 	9.713723710401627e-13 	101324.9999999907
0.2665165165165161 	299.9999999999336 	2.811878456331442e-12 	101324.9999999912
0.2690190190190185 	300.0000000000152 	1.609374042408434e-12 	101324.9999999911
0.271521521521521 	300.0000000000186 	1.307668142226598e-12 	101324.9999999912
0.2740240240240235 	300.0000000000198 	9.466815538217013e-13 	101324.9999999913
0.276526526526526 	300.0000000000107 	1.899784583961248e-13 	101324.9999999914
0.2790290290290286 	299.9999999999488 	1.539048278350085e-12 	101324.9999999914
0.281531531531531 	299.999999999934 	7.234229788505353e-13 	101324.9999999917
0.2840340340340335 	299.9999999999851 	2.715397205073172e-12 	101324.9999999919
0.2865365365365361 	299.9999999999616 	1.203845837560537e-12 	101324.9999999917
0.2890390390390385 	299.999999999998 	1.70518636397116e-12 	101324.9999999916
0.291541541541541 	299.9999999999978 	1.11905793969265e-12 	101324.9999999915
0.2940440440440436 	299.9999999999948 	4.465765407325818e-13 	101324.9999999914
0.296546546546546 	299.9999999999905 	1.986568785953557e-12 	101324.9999999913
0.2990490490490486 	299.999999999945 	1.400990058374557e-12 	101324.9999999915
0.3015515515515511 	300.0000000000314 	3.422134330075522e-12 	101324.9999999916
0.3040540540540535 	299.9999999999984 	2.754703657718711e-12 	101324.9999999919
0.3065565565565562 	299.9999999999945 	4.041703254050744e-12 	101324.9999999916
0.3090590590590585 	299.9999999999917 	2.293628848947655e-12 	101324.9999999916
0.3115615615615611 	299.9999999999487 	3.538624695918514e-12 	101324.9999999917
0.3140640640640635 	300.0000000000088 	4.163672524408614e-13 	101324.9999999916
0.316566566566566 	299.9999999999918 	2.921228352268915e-12 	101324.9999999914
0.3190690690690687 	299.9999999999576 	6.544450827689793e-13 	101324.9999999912
0.3215715715715711 	300.0000000000127 	2.792808854816074e-12 	101324.9999999911
0.3240740740740735 	299.9999999999969 	7.700123254313878e-13 	101324.9999999912
0.326576576576576 	299.9999999999065 	1.564022892124692e-12 	101324.9999999911
0.3290790790790786 	300.0000000000092 	3.404390946937879e-13 	101324.999999991
0.3315815815815811 	300.0000000000355 	1.027718384021377e-12 	101324.9999999908
0.3340840840840836 	299.9999999999885 	9.101725798374639e-13 	101324.999999991
0.3365865865865861 	300.000000000048 	7.627034727072962e-13 	101324.999999991
0.3390890890890886 	300.0000000000424 	1.396201866142423e-12 	101324.9999999911
0.3415915915915911 	299.9999999999962 	6.345549704837401e-13 	101324.9999999909
0.3440940940940935 	299.9999999999569 	2.055106950831142e-12 	101324.999999991
0.3465965965965962 	300.000000000035 	3.718074662600563e-13 	101324.999999991
0.3490990990990985 	300.000000000027 	1.266063187651899e-12 	101324.9999999909
0.3516016016016011 	299.999999999987 	2.040776446718838e-13 	101324.9999999911
0.3541041041041035 	300.0000000000028 	1.068924582433461e-13 	101324.9999999909
0.3566066066066061 	299.999999999957 	7.055064758452823e-13 	101324.999999991
0.3591091091091085 	299.9999999999227 	1.500136231054268e-12 	101324.9999999911
0.3616116116116112 	299.9999999999441 	1.171228113066789e-12 	101324.9999999912
0.3641141141141137 	299.9999999999387 	2.504229063022756e-12 	101324.9999999914
0.3666166166166161 	299.9999999999297 	1.15064572680972e-12 	101324.9999999916
0.3691191191191185 	300.0000000000329 	3.736266773479733e-12 	101324.9999999917
0.371621621621621 	300.000000000015 	1.326959780872889e-12 	101324.9999999915
0.3741241241241237 	300.0000000000439 	2.367724648358264e-12 	101324.9999999911
0.3766266266266261 	300.0000000000236 	1.03174694578057e-12 	101324.9999999908
0.3791291291291286 	299.9999999999866 	1.598316642869516e-12 	101324.9999999905
0.3816316316316311 	299.9999999999203 	8.568857364772968e-13 	101324.9999999905
0.3841341341341336 	300.0000000000081 	1.762072029156935e-12 	101324.9999999905
0.3866366366366362 	299.999999999994 	5.324965119954546e-13 	101324.9999999904
0.3891391391391387 	299.9999999999587 	1.385015091211624e-12 	101324.9999999905
0.391641641641641 	299.999999999992 	5.019555801393375e-13 	101324.9999999906
0.3941441441441436 	300.0000000000056 	1.421542734324973e-12 	101324.9999999904
0.3966466466466462 	299.9999999999973 	5.751054017580551e-13 	101324.9999999904
0.3991491491491486 	299.9999999999496 	1.457142764750323e-12 	101324.9999999903
0.4016516516516512 	299.9999999999185 	7.017534380945256e-13 	101324.9999999906
0.4041541541541536 	299.9999999999555 	1.535807796534712e-12 	101324.9999999907
0.4066566566566561 	299.9999999999512 	8.893217490244581e-13 	101324.9999999908
0.4091591591591587 	299.9999999999854 	8.788529488220687e-13 	101324.9999999908
0.4116616616616612 	299.9999999999958 	3.471493118761318e-13 	101324.9999999906
0.4141641641641635 	300.0000000000372 	5.087884578343139e-13 	101324.9999999907
0.4166666666666662 	299.9999999999946 	3.820781807812831e-13 	101324.9999999907
0.4191691691691687 	299.9999999999421 	8.90225552148034e-13 	101324.9999999908
0.421671671671671 	300.00000000001 	1.941076821904683e-12 	101324.999999991
0.4241741741741737 	299.9999999999742 	1.985920981167409e-12 	101324.999999991
0.4266766766766761 	299.9999999999588 	2.854423842675755e-12 	101324.9999999909
0.4291791791791785 	300.0000000000138 	3.092434818718834e-12 	101324.9999999909
0.4316816816816812 	300.0000000000099 	2.829907272229622e-12 	101324.9999999908
0.4341841841841836 	299.9999999999853 	3.107127296509199e-12 	101324.9999999906
0.4366866866866862 	299.9999999999255 	9.460250249933185e-13 	101324.9999999908
0.4391891891891885 	299.9999999999879 	3.107398309956503e-12 	101324.999999991
0.4416916916916913 	299.9999999999847 	8.242297394780436e-13 	101324.9999999912
0.4441941941941936 	299.999999999989 	1.929703997007196e-12 	101324.9999999912
0.4466966966966961 	299.9999999999224 	3.266766146691816e-13 	101324.9999999908
0.4491991991991987 	299.9999999999762 	3.714917741825887e-13 	101324.9999999907
0.4517017017017012 	299.9999999999745 	4.37514713553822e-13 	101324.9999999906
0.4542042042042035 	299.9999999999945 	4.921357876014203e-13 	101324.9999999907
0.4567067067067062 	299.999999999996 	5.346500366681903e-13 	101324.9999999909
0.4592092092092087 	299.9999999999312 	1.343018168563867e-12 	101324.9999999911
0.4617117117117112 	300.0000000000186 	1.194846689648616e-12 	101324.9999999913
0.4642142142142137 	299.9999999999653 	1.043796095662458e-12 	101324.9999999915
0.4667167167167162 	299.9999999999918 	9.354878243356744e-13 	101324.9999999914
0.4692192192192187 	299.9999999999608 	7.355302563897843e-13 	101324.9999999914
0.4717217217217212 	300.000000000009 	6.481385899815951e-13 	101324.9999999911
0.4742242242242236 	299.9999999999606 	3.89246906096636e-13 	101324.9999999909
0.4767267267267262 	299.9999999999774 	3.409938460267415e-13 	101324.9999999907
0.4792292292292287 	300.0000000000173 	2.547850521579086e-13 	101324.9999999906
0.4817317317317312 	300.0000000000289 	2.292809925732885e-13 	101324.9999999907
0.4842342342342336 	299.9999999999855 	2.914262374871454e-13 	101324.9999999907
0.4867367367367362 	299.9999999999594 	8.97392434417585e-13 	101324.999999991
0.4892392392392387 	300.0000000000264 	7.118919745243904e-13 	101324.9999999909
0.4917417417417412 	300.0000000000037 	1.679926908957082e-12 	101324.9999999911
0.4942442442442437 	299.9999999999164 	8.541600361461319e-13 	101324.9999999911
0.4967467467467462 	299.9999999999344 	1.475585142895753e-12 	101324.9999999912
0.4992492492492487 	299.9999999999292 	7.133792606335418e-13 	101324.9999999916
0.5017517517517511 	299.9999999999595 	7.285348326651186e-13 	101324.9999999918
0.5042542542542537 	299.9999999999691 	9.128074405527308e-13 	101324.9999999919
0.5067567567567562 	299.9999999999515 	1.220857475950087e-12 	101324.9999999917
0.5092592592592589 	299.9999999999686 	8.389413205497684e-13 	101324.9999999916
0.5117617617617611 	299.9999999999603 	1.961156091871331e-12 	101324.9999999916
0.5142642642642637 	299.9999999999885 	1.684978959126917e-12 	101324.9999999915
0.5167667667667663 	299.9999999999736 	2.445080539244004e-12 	101324.9999999916
0.5192692692692688 	299.9999999999235 	2.864515423958744e-12 	101324.9999999916
0.5217717717717714 	299.999999999944 	3.396423314695435e-12 	101324.9999999915
0.5242742742742736 	299.9999999999454 	2.711219451040233e-12 	101324.9999999913
0.5267767767767763 	299.999999999963 	2.753524515574041e-12 	101324.9999999911
0.5292792792792789 	299.9999999999454 	1.984462774134461e-12 	101324.9999999912
0.5317817817817813 	299.9999999999163 	1.384951718898997e-12 	101324.9999999915
0.5342842842842837 	300.000000000015 	1.596651780978895e-12 	101324.9999999918
0.5367867867867864 	300.000000000003 	8.889038326993959e-13 	101324.999999992
0.5392892892892888 	299.9999999999646 	1.542331514676172e-12 	101324.9999999921
0.5417917917917912 	300.0000000000019 	4.762538342663728e-13 	101324.999999992
0.5442942942942938 	299.9999999999857 	9.359056112506997e-13 	101324.999999992
0.5467967967967964 	299.999999999954 	8.540236077276013e-13 	101324.999999992
0.5492992992992988 	299.9999999999494 	4.01095975984943e-13 	101324.999999992
0.5518018018018012 	299.9999999999507 	1.104598962986083e-12 	101324.999999992
0.5543043043043039 	300.0000000000185 	7.087003977333907e-13 	101324.9999999916
0.5568068068068063 	299.9999999999923 	9.12583644623282e-13 	101324.9999999915
0.5593093093093087 	299.9999999999188 	1.108939698255075e-12 	101324.9999999915
0.5618118118118114 	299.9999999999655 	6.287162873567021e-13 	101324.9999999915
0.5643143143143137 	299.9999999999546 	6.585932818252532e-13 	101324.9999999914
0.5668168168168163 	299.9999999999933 	5.419936603870665e-13 	101324.9999999915
0.5693193193193188 	300.0000000000283 	5.750704639452027e-13 	101324.9999999916
0.5718218218218213 	300.0000000000251 	9.975948914943934e-13 	101324.9999999916
0.5743243243243239 	300.0000000000093 	2.151255549718011e-12 	101324.9999999914
0.5768268268268262 	300.0000000000036 	1.479054763166523e-12 	101324.9999999916
0.5793293293293288 	299.9999999999451 	3.517757619851102e-12 	101324.9999999914
0.5818318318318314 	299.9999999999263 	1.534654525837919e-12 	101324.9999999913
0.5843343343343338 	299.9999999999859 	4.5163986379396e-12 	101324.999999991
0.5868368368368363 	299.9999999999801 	1.372880913057638e-12 	101324.9999999908
0.5893393393393387 	299.9999999999546 	2.861432305357762e-12 	101324.9999999908
0.5918418418418413 	299.9999999999482 	1.318124368819239e-12 	101324.9999999908
0.5943443443443439 	300.0000000000117 	1.96483129476759e-12 	101324.999999991
0.5968468468468463 	300.0000000000124 	1.823223970471891e-12 	101324.999999991
0.5993493493493487 	300.00000000003 	1.155681410995309e-12 	101324.9999999909
0.6018518518518514 	299.9999999999807 	2.723767529733159e-12 	101324.9999999907
0.6043543543543537 	299.9999999999957 	2.048270849081254e-12 	101324.9999999909
0.6068568568568564 	299.9999999999848 	2.623333004568433e-12 	101324.9999999911
0.6093593593593587 	299.9999999999392 	7.018139237366741e-13 	101324.9999999912
0.6118618618618614 	299.9999999999328 	1.492122922426463e-12 	101324.9999999912
0.6143643643643638 	300.0000000000162 	1.272662276279291e-12 	101324.999999991
0.6168668668668662 	299.9999999999899 	1.847340507824971e-12 	101324.999999991
0.6193693693693688 	299.9999999999599 	1.778165038532772e-12 	101324.9999999912
0.6218718718718714 	299.9999999999695 	1.05481297398768e-12 	101324.9999999914
0.6243743743743737 	299.9999999999398 	1.362993116787435e-12 	101324.9999999917
0.6268768768768762 	299.9999999999374 	6.916707488609776e-13 	101324.999999992
0.629379379379379 	299.9999999999607 	5.165286046933991e-13 	101324.9999999924
0.6318818818818812 	299.99999999998 	3.388455950377384e-13 	101324.9999999923
0.6343843843843838 	300.0000000000171 	9.076782809263987e-13 	101324.9999999922
0.6368868868868864 	299.9999999999862 	1.679559713670605e-12 	101324.9999999922
0.6393893893893888 	299.9999999999343 	1.60098482457627e-12 	101324.9999999921
0.6418918918918912 	300.0000000000035 	3.298703792308687e-12 	101324.9999999921
0.6443943943943939 	299.9999999999814 	3.08951294418555e-12 	101324.9999999922
0.6468968968968963 	299.9999999999853 	3.303275779741861e-12 	101324.999999992
0.6493993993993988 	299.9999999999778 	3.230722467523312e-12 	101324.999999992
0.6519019019019012 	299.9999999999768 	2.748326639225659e-12 	101324.9999999922
0.6544044044044038 	299.999999999913 	3.019815109865978e-12 	101324.9999999921
0.6569069069069065 	299.9999999999579 	2.405988744013767e-12 	101324.9999999923
0.6594094094094087 	299.9999999999692 	1.607696079822644e-12 	101324.9999999923
0.6619119119119113 	299.9999999999624 	2.087052281065152e-12 	101324.9999999926
0.664414414414414 	300.0000000000038 	1.148489261098077e-12 	101324.9999999927
0.6669169169169162 	300.0000000000172 	1.343413942870059e-12 	101324.9999999928
0.6694194194194188 	299.9999999999875 	1.030583957448004e-12 	101324.9999999926
0.6719219219219214 	299.9999999999326 	1.594407528740082e-12 	101324.9999999921
0.674424424424424 	299.9999999999787 	1.012737752519109e-12 	101324.9999999921
0.6769269269269262 	299.9999999999314 	1.934144631878446e-12 	101324.9999999922
0.679429429429429 	300.0000000000003 	1.761651572137069e-12 	101324.999999992
0.6819319319319311 	299.9999999999827 	2.250650933656271e-12 	101324.999999992
0.6844344344344341 	299.9999999999942 	1.569497148848345e-12 	101324.9999999919
0.686936936936936 	299.9999999999905 	2.295941506056051e-12 	101324.9999999921
0.6894394394394392 	299.9999999999862 	2.063450086605079e-12 	101324.9999999924
0.6919419419419413 	299.9999999999876 	2.238131464243685e-12 	101324.9999999928
0.694444444444444 	299.9999999999463 	2.657920484241831e-12 	101324.9999999931
0.6969469469469463 	299.9999999999358 	2.694551058283506e-12 	101324.9999999932
0.6994494494494489 	299.9999999999289 	3.6909939279619e-12 	101324.9999999934
0.7019519519519515 	299.9999999999874 	2.844504629064226e-12 	101324.9999999935
0.7044544544544538 	299.9999999999565 	4.226780593154296e-12 	101324.9999999936
0.7069569569569564 	299.9999999999942 	2.464344204553905e-12 	101324.9999999936
0.7094594594594589 	299.9999999999687 	4.314636319836186e-12 	101324.9999999934
0.7119619619619615 	299.9999999999231 	2.486388065683839e-12 	101324.9999999935
0.7144644644644638 	299.999999999955 	3.719766313675508e-12 	101324.9999999935
0.7169669669669665 	299.9999999999278 	2.749674717365006e-12 	101324.9999999936
0.7194694694694688 	299.9999999999933 	3.440564831685674e-12 	101324.9999999936
0.7219719719719715 	299.9999999999893 	2.192620551445995e-12 	101324.9999999938
0.7244744744744737 	300.0000000000019 	1.991598868938599e-12 	101324.9999999937
0.7269769769769764 	299.9999999999947 	1.66630631845888e-12 	101324.9999999938
0.7294794794794791 	299.9999999999892 	8.599263004865686e-13 	101324.9999999937
0.7319819819819813 	299.9999999999863 	1.847111177293613e-12 	101324.9999999936
0.7344844844844839 	299.9999999999294 	1.209243247087336e-12 	101324.9999999936
0.7369869869869864 	299.9999999999532 	2.122391942158918e-12 	101324.9999999939
0.739489489489489 	299.9999999999436 	1.473664754786274e-12 	101324.999999994
0.7419919919919914 	299.9999999999387 	1.716019527885794e-12 	101324.9999999941
0.7444944944944939 	299.9999999999834 	2.791565681951341e-12 	101324.9999999941
0.7469969969969963 	299.9999999999737 	1.605644789099197e-12 	101324.9999999941
0.7494994994994989 	299.9999999999534 	3.489540783613659e-12 	101324.9999999937
0.7520020020020015 	299.999999999976 	1.900796965592797e-12 	101324.9999999936
0.7545045045045039 	299.9999999999722 	3.894457592971592e-12 	101324.9999999936
0.7570070070070062 	299.9999999999461 	1.791674455378375e-12 	101324.9999999937
0.7595095095095092 	299.999999999935 	3.599754300320517e-12 	101324.9999999936
0.7620120120120112 	300.0000000000037 	3.07566720558015e-12 	101324.9999999936
0.7645145145145138 	299.9999999999874 	3.371624178777958e-12 	101324.9999999936
0.7670170170170165 	299.9999999999386 	3.547420553716177e-12 	101324.9999999937
0.7695195195195191 	299.9999999999331 	2.544385627351484e-12 	101324.9999999939
0.7720220220220213 	299.9999999999401 	3.850581196667794e-12 	101324.9999999942
0.7745245245245239 	299.9999999999351 	2.148488016298648e-12 	101324.9999999943
0.7770270270270263 	299.9999999999706 	3.282128666718096e-12 	101324.9999999942
0.779529529529529 	299.9999999999848 	2.49604066585645e-12 	101324.9999999942
0.7820320320320313 	299.9999999999782 	3.573349354632263e-12 	101324.9999999944
0.784534534534534 	300.000000000001 	3.590401366275838e-12 	101324.9999999946
0.7870370370370364 	299.9999999999977 	3.292046242939594e-12 	101324.9999999947
0.7895395395395389 	299.9999999999843 	4.193018703438057e-12 	101324.9999999946
0.7920420420420413 	299.9999999999802 	3.176128940590499e-12 	101324.9999999948
0.794544544544544 	299.99999999998 	4.833486772142097e-12 	101324.999999995
0.7970470470470463 	299.9999999999964 	2.735532381955132e-12 	101324.9999999949
0.799549549549549 	299.9999999999825 	5.440364337874858e-12 	101324.9999999947
0.8020520520520515 	299.9999999999884 	3.321417515161805e-12 	101324.9999999946
0.8045545545545539 	299.9999999999563 	5.464883533570218e-12 	101324.9999999945
0.8070570570570563 	299.9999999999814 	4.696648822194431e-12 	101324.9999999945
0.8095595595595589 	299.999999999961 	5.628285504237462e-12 	101324.9999999946
0.8120620620620614 	299.999999999948 	5.687966666712113e-12 	101324.9999999945
0.8145645645645638 	299.9999999999961 	5.825266308149031e-12 	101324.9999999946
0.8170670670670666 	299.999999999991 	6.560828065513787e-12 	101324.9999999948
0.8195695695695689 	299.9999999999779 	5.4377275554371e-12 	101324.999999995
0.8220720720720714 	299.9999999999519 	7.101559625004016e-12 	101324.9999999952
0.8245745745745739 	299.9999999999967 	4.402507568116009e-12 	101324.999999995
0.8270770770770765 	299.9999999999761 	5.252544962130027e-12 	101324.9999999952
0.8295795795795788 	299.999999999958 	4.727515424931125e-12 	101324.9999999953
0.8320820820820815 	300.0000000000127 	5.734000238215705e-12 	101324.999999995
0.834584584584584 	300.0000000000038 	5.06613390394825e-12 	101324.9999999947
0.8370870870870865 	299.999999999968 	4.760743505103376e-12 	101324.9999999946
0.8395895895895891 	299.9999999999427 	5.380944840271803e-12 	101324.9999999945
0.8420920920920915 	299.9999999999516 	4.502282451348042e-12 	101324.9999999945
0.844594594594594 	299.9999999999525 	4.466064573146394e-12 	101324.9999999944
0.8470970970970964 	299.9999999999698 	3.949159363288674e-12 	101324.9999999944
0.8495995995995991 	299.9999999999972 	3.78961926150687e-12 	101324.9999999945
0.8521021021021015 	299.9999999999845 	4.167430658835596e-12 	101324.9999999946
0.8546046046046039 	299.9999999999727 	3.715551823515934e-12 	101324.9999999948
0.8571071071071066 	299.9999999999993 	4.66210037239248e-12 	101324.9999999949
0.8596096096096089 	299.9999999999726 	3.437816782440564e-12 	101324.9999999949
0.8621121121121116 	299.9999999999465 	6.494823362943555e-12 	101324.9999999951
0.8646146146146139 	299.9999999999966 	4.538049400976393e-12 	101324.9999999953
0.8671171171171166 	299.9999999999768 	6.080537246627288e-12 	101324.9999999954
0.8696196196196189 	299.9999999999509 	5.466843344545505e-12 	101324.9999999954
0.8721221221221216 	299.9999999999845 	5.908059623850257e-12 	101324.9999999952
0.874624624624624 	300.0000000000074 	5.286953464496805e-12 	101324.9999999951
0.8771271271271264 	299.9999999999999 	5.032236804216611e-12 	101324.9999999951
0.879629629629629 	300.0000000000006 	5.65155683178083e-12 	101324.9999999951
0.8821321321321317 	299.9999999999869 	3.985539204530891e-12 	101324.9999999952
0.8846346346346339 	299.9999999999357 	5.6722167396539e-12 	101324.9999999951
0.8871371371371364 	299.9999999999611 	4.198405613195117e-12 	101324.9999999951
0.8896396396396391 	299.9999999999588 	6.555358554355694e-12 	101324.9999999951
0.8921421421421414 	299.9999999999639 	6.315933333153468e-12 	101324.9999999947
0.8946446446446441 	299.9999999999874 	7.534024828134885e-12 	101324.9999999946
0.8971471471471464 	300.0000000000013 	7.658802495492188e-12 	101324.9999999943
0.8996496496496489 	299.9999999999814 	7.986139646160156e-12 	101324.9999999941
0.9021521521521517 	299.9999999999651 	9.190399050734e-12 	101324.9999999941
0.9046546546546541 	299.9999999999891 	7.873679635670683e-12 	101324.9999999943
0.9071571571571564 	299.9999999999543 	8.025374430950314e-12 	101324.9999999944
0.9096596596596589 	299.9999999999515 	7.532036379764692e-12 	101324.9999999945
0.9121621621621616 	300.0000000000058 	7.575008551475586e-12 	101324.9999999947
0.9146646646646639 	299.9999999999781 	7.125846382281365e-12 	101324.999999995
0.9171671671671666 	299.9999999999471 	6.586833381196217e-12 	101324.9999999951
0.9196696696696689 	299.9999999999956 	7.069103789753747e-12 	101324.9999999952
0.9221721721721714 	300.0000000000008 	5.63502892774787e-12 	101324.9999999952
0.9246746746746741 	299.9999999999517 	7.926568355800582e-12 	101324.999999995
0.9271771771771765 	299.9999999999531 	5.830580703863672e-12 	101324.999999995
0.9296796796796791 	299.9999999999947 	7.265199723123704e-12 	101324.9999999953
0.9321821821821816 	299.9999999999805 	5.499125730281985e-12 	101324.9999999955
0.9346846846846838 	299.99999999996 	6.46952688633136e-12 	101324.9999999955
0.9371871871871866 	300.0000000000097 	6.473296549243675e-12 	101324.9999999953
0.9396896896896891 	300.0000000000106 	7.28719085083722e-12 	101324.9999999948
0.9421921921921914 	300.0000000000081 	8.109706830946412e-12 	101324.9999999944
0.9446946946946939 	299.9999999999682 	6.94165853704437e-12 	101324.999999994
0.9471971971971965 	299.9999999999309 	8.419365407171884e-12 	101324.999999994
0.9496996996996991 	299.9999999999626 	6.256259743430628e-12 	101324.9999999942
0.9522022022022016 	299.999999999977 	7.205850876375425e-12 	101324.9999999944
0.9547047047047038 	299.9999999999785 	5.89757513017501e-12 	101324.9999999944
0.9572072072072064 	299.9999999999751 	6.278713513298119e-12 	101324.9999999945
0.9597097097097093 	299.9999999999675 	6.028165368064878e-12 	101324.9999999944
0.9622122122122114 	299.9999999999613 	5.975418542331432e-12 	101324.9999999946
0.964714714714714 	299.999999999962 	7.29036224362874e-12 	101324.9999999946
0.9672172172172167 	299.9999999999648 	7.063607441197309e-12 	101324.9999999943
0.969719719719719 	299.9999999999884 	8.122050791826135e-12 	101324.9999999941
0.9722222222222214 	299.9999999999748 	7.811421323793272e-12 	101324.999999994
0.9747247247247239 	299.9999999999698 	8.373153785859888e-12 	101324.9999999939
0.9772272272272267 	299.9999999999992 	8.383660333759607e-12 	101324.999999994
0.9797297297297292 	299.9999999999888 	7.648463716391339e-12 	101324.9999999941
0.9822322322322313 	299.9999999999953 	7.734417156393044e-12 	101324.9999999942
0.9847347347347344 	299.9999999999924 	6.510524650904142e-12 	101324.9999999943
0.9872372372372363 	299.9999999999532 	8.98119842462205e-12 	101324.9999999944
0.9897397397397389 	299.9999999999775 	7.040421037440567e-12 	101324.9999999946
0.9922422422422417 	299.9999999999641 	8.63709301586897e-12 	101324.9999999948
0.9947447447447441 	299.9999999999619 	7.327695739305219e-12 	101324.9999999948
0.9972472472472468 	299.9999999999642 	8.445121276026395e-12 	101324.9999999949
0.999749749749749 	299.9999999999604 	8.636579769566922e-12 	101324.9999999948
1.002252252252252 	299.9999999999804 	9.335797270816233e-12 	101324.9999999949
1.004754754754754 	299.9999999999903 	9.143599279753508e-12 	101324.9999999948
1.007257257257256 	299.9999999999727 	8.01830848225194e-12 	101324.9999999947
1.009759759759759 	299.9999999999625 	9.982927127199983e-12 	101324.9999999944
1.012262262262261 	299.9999999999565 	8.252608899042749e-12 	101324.9999999942
1.014764764764764 	299.9999999999321 	9.453868407842151e-12 	101324.9999999941
1.017267267267267 	299.999999999926 	8.287599073622092e-12 	101324.999999994
1.019769769769769 	299.9999999999657 	9.320852642993327e-12 	101324.9999999942
1.022272272272272 	299.9999999999748 	9.293023017408733e-12 	101324.9999999942
1.024774774774774 	299.9999999999756 	9.742649131913046e-12 	101324.9999999944
1.027277277277277 	299.9999999999757 	1.034420736727161e-11 	101324.9999999941
1.029779779779779 	299.9999999999996 	9.209474425430668e-12 	101324.999999994
1.032282282282282 	299.9999999999989 	9.24540002682874e-12 	101324.9999999943
1.034784784784784 	299.9999999999901 	8.368955643500059e-12 	101324.9999999944
1.037287287287286 	299.999999999966 	8.743388990689131e-12 	101324.9999999943
1.039789789789789 	299.9999999999741 	9.082331446556585e-12 	101324.9999999944
1.042292292292291 	300.000000000008 	9.238409873834691e-12 	101324.9999999944
1.044794794794794 	300.00000000002 	9.210543998386486e-12 	101324.9999999943
1.047297297297296 	300.0000000000333 	7.950774744649139e-12 	101324.9999999943
1.049799799799799 	299.9999999999931 	8.845120482916348e-12 	101324.9999999942
1.052302302302302 	299.999999999965 	6.096647138086338e-12 	101324.9999999943
1.054804804804804 	299.9999999999451 	6.953508253869655e-12 	101324.9999999945
1.057307307307306 	299.9999999999289 	6.043153016633766e-12 	101324.9999999946
1.059809809809809 	299.9999999999594 	7.360941625980528e-12 	101324.9999999946
1.062312312312312 	299.9999999999511 	6.670441061264688e-12 	101324.9999999943
1.064814814814814 	299.9999999999447 	7.00521741033621e-12 	101324.999999994
1.067317317317317 	299.9999999999299 	7.16271519646128e-12 	101324.9999999941
1.069819819819819 	299.9999999999329 	7.335900919247339e-12 	101324.9999999942
1.072322322322321 	299.9999999999885 	9.119953797297663e-12 	101324.9999999944
1.074824824824824 	300.0000000000139 	7.833360172262676e-12 	101324.9999999946
1.077327327327327 	300.0000000000284 	9.535713023586846e-12 	101324.9999999945
1.079829829829829 	300.0000000000286 	8.748315778202216e-12 	101324.9999999942
1.082332332332332 	299.9999999999959 	9.482983653883065e-12 	101324.9999999942
1.084834834834834 	299.9999999999726 	9.223033109696044e-12 	101324.9999999943
1.087337337337337 	299.9999999999438 	9.075460150613478e-12 	101324.9999999942
1.089839839839839 	299.9999999999389 	9.971195742611506e-12 	101324.9999999939
1.092342342342342 	299.9999999999746 	8.608160069813931e-12 	101324.9999999939
1.094844844844844 	299.999999999979 	9.397483293141851e-12 	101324.9999999939
1.097347347347347 	299.9999999999513 	7.776131814548473e-12 	101324.9999999939
1.099849849849849 	299.9999999999394 	9.396820172293549e-12 	101324.9999999938
1.102352352352352 	299.9999999999612 	6.777110651233426e-12 	101324.9999999938
1.104854854854854 	299.9999999999768 	7.908473785230056e-12 	101324.9999999939
1.107357357357357 	299.9999999999616 	6.515275768981458e-12 	101324.999999994
1.109859859859859 	299.9999999999518 	8.058864456270806e-12 	101324.9999999941
1.112362362362362 	300.0000000000153 	7.281978219911584e-12 	101324.9999999942
1.114864864864865 	300.0000000000181 	7.70057526786927e-12 	101324.9999999943
1.117367367367367 	299.9999999999696 	8.797934823475555e-12 	101324.9999999943
1.119869869869869 	299.9999999999353 	7.914330026687984e-12 	101324.9999999941
1.122372372372372 	299.9999999999632 	9.025245278392451e-12 	101324.9999999939
1.124874874874874 	299.9999999999593 	7.904511340273462e-12 	101324.9999999937
1.127377377377377 	299.999999999972 	9.08805818652237e-12 	101324.9999999938
1.129879879879879 	300.0000000000163 	8.908242094423093e-12 	101324.9999999939
1.132382382382382 	300.0000000000215 	9.100536601676329e-12 	101324.9999999939
1.134884884884884 	300.0000000000033 	8.277016749855959e-12 	101324.999999994
1.137387387387387 	300.0000000000128 	7.762978284866596e-12 	101324.9999999937
1.139889889889889 	299.9999999999629 	8.484900553120361e-12 	101324.9999999936
1.142392392392392 	299.9999999999527 	7.259379971388787e-12 	101324.9999999937
1.144894894894894 	300.0000000000107 	8.325937730211985e-12 	101324.9999999938
1.147397397397397 	300.0000000000023 	7.2213770557498e-12 	101324.999999994
1.149899899899899 	299.9999999999498 	7.911940634401105e-12 	101324.9999999943
1.152402402402402 	299.9999999999374 	7.497879371755573e-12 	101324.9999999945
1.154904904904904 	299.9999999999788 	8.037821394299092e-12 	101324.9999999943
1.157407407407407 	299.99999999998 	6.968496567442304e-12 	101324.9999999941
1.159909909909909 	299.9999999999463 	6.955195354512764e-12 	101324.9999999941
1.162412412412412 	299.9999999999353 	8.542946905741443e-12 	101324.9999999942
1.164914914914914 	299.9999999999699 	7.585463426300469e-12 	101324.9999999942
1.167417417417417 	299.9999999999756 	8.383347647133528e-12 	101324.9999999942
1.169919919919919 	300.0000000000117 	6.785518533403459e-12 	101324.9999999943
1.172422422422422 	300.0000000000317 	6.974437448222709e-12 	101324.9999999946
1.174924924924925 	299.9999999999901 	5.903474384253847e-12 	101324.9999999946
1.177427427427427 	299.9999999999731 	6.450754742085177e-12 	101324.9999999945
1.179929929929929 	300.000000000007 	7.549693538650576e-12 	101324.9999999942
1.182432432432432 	300.000000000023 	6.858304038800005e-12 	101324.9999999942
1.184934934934934 	299.9999999999928 	7.78993035782302e-12 	101324.9999999941
1.187437437437437 	299.9999999999752 	6.949261387584918e-12 	101324.999999994
1.189939939939939 	299.9999999999748 	7.830785970338885e-12 	101324.9999999939
1.192442442442442 	299.9999999999353 	7.563220931362851e-12 	101324.9999999938
1.194944944944944 	299.9999999999454 	8.721867506101212e-12 	101324.9999999939
1.197447447447447 	300.0000000000042 	7.971076015701589e-12 	101324.9999999941
1.199949949949949 	300.0000000000097 	7.567118923625817e-12 	101324.9999999942
1.202452452452452 	299.9999999999587 	8.016121438808201e-12 	101324.9999999942
1.204954954954955 	299.999999999959 	6.997788396977315e-12 	101324.9999999942
1.207457457457457 	299.9999999999958 	7.653851100778599e-12 	101324.9999999944
1.20995995995996 	299.9999999999877 	6.599997283955264e-12 	101324.9999999944
1.212462462462462 	299.9999999999808 	7.484114204934022e-12 	101324.9999999944
1.214964964964964 	299.9999999999844 	7.029763920598074e-12 	101324.9999999943
1.217467467467467 	299.9999999999828 	7.83146870172478e-12 	101324.9999999941
1.219969969969969 	299.99999999997 	6.794546065531455e-12 	101324.9999999941
1.222472472472472 	300.0000000000085 	6.517400026589031e-12 	101324.9999999944
1.224974974974975 	300.0000000000219 	6.40012930926828e-12 	101324.9999999946
1.227477477477477 	299.9999999999878 	5.100957161286468e-12 	101324.9999999946
1.229979979979979 	299.9999999999876 	5.726901585759489e-12 	101324.9999999947
1.232482482482482 	299.9999999999611 	4.540008456787023e-12 	101324.9999999946
1.234984984984984 	299.9999999999571 	5.749119600637433e-12 	101324.9999999946
1.237487487487487 	299.9999999999865 	5.016487089656097e-12 	101324.9999999944
1.239989989989989 	299.9999999999952 	5.905333272182841e-12 	101324.9999999943
1.242492492492492 	300.0000000000236 	6.554463280133293e-12 	101324.9999999942
1.244994994994994 	299.9999999999974 	6.014388808293467e-12 	101324.9999999942
1.247497497497497 	300.0000000000008 	6.703272643420348e-12 	101324.9999999942
1.249999999999999 	300.0000000000622 	5.559144204253615e-12 	101324.9999999943
