-1.25 	300 	0 	101331.2666616782
-1.247497497497497 	300.0056354575231 	2.721432968038981 	101338.9832450739
-1.244994994994995 	300.0034129596698 	2.654527699318473 	101333.5721274736
-1.242492492492492 	300.0092235610559 	2.574512575126057 	101339.5374177314
-1.23998998998999 	300.0055077657545 	2.4899978063908 	101335.4220361523
-1.237487487487487 	300.0100107872536 	2.394346260660859 	101339.9925196976
-1.234984984984985 	300.007321568654 	2.298021705213475 	101336.9889224942
-1.232482482482482 	300.0110934028618 	2.193004693774284 	101340.7725804079
-1.22997997997998 	300.0091345002166 	2.089945578156078 	101338.563486422
-1.227477477477477 	300.0123021765642 	1.980224929620474 	101341.7141778877
-1.224974974974975 	300.0107094971971 	1.87551773344941 	101339.8979424625
-1.222472472472472 	300.013418283116 	1.764437286419073 	101342.585845665
-1.21996996996997 	300.0120701953441 	1.660510482175057 	101341.0356605038
-1.217467467467467 	300.0147865091708 	1.551186213635421 	101343.8089033968
-1.214964964964965 	300.0137043713775 	1.450460441193097 	101342.5631488578
-1.212462462462462 	300.015979547486 	1.344778483766792 	101344.883774748
-1.20995995995996 	300.0147773318784 	1.250671426384274 	101343.4965189649
-1.207457457457457 	300.0170394979851 	1.146850251232162 	101345.8597596426
-1.204954954954955 	300.0168530163309 	1.053388824593126 	101345.6672729867
-1.202452452452452 	300.0177923478055 	0.9523817591640313 	101346.5188284127
-1.19994994994995 	300.0180008934636 	0.8639088277968496 	101346.7945579418
-1.197447447447447 	300.0185611922972 	0.7663370818794379 	101347.2476946267
-1.194944944944945 	300.0194290277062 	0.6835401512051643 	101348.3039726818
-1.192442442442442 	300.0193049111696 	0.5915330748406387 	101347.994571309
-1.18993993993994 	300.0206190451432 	0.5168576093463336 	101349.5793510933
-1.187437437437437 	300.0200872507111 	0.4327358213893684 	101348.8310186975
-1.184934934934935 	300.0216693471613 	0.3680876539555523 	101350.7313464383
-1.182432432432432 	300.020846006213 	0.2935162536441825 	101349.6759347496
-1.17992992992993 	300.0226569239528 	0.2407261004118428 	101351.8427539902
-1.177427427427427 	300.0217221093334 	0.1773410923798943 	101350.686784198
-1.174924924924925 	300.0235573590619 	0.1380670918353082 	101352.875849856
-1.172422422422422 	300.0226785574409 	0.08743803062321813 	101351.8099950157
-1.16991991991992 	300.0243329041472 	0.06317826667569926 	101353.7773501642
-1.167417417417417 	300.0237231067314 	0.0791278959231095 	101353.0458643612
-1.164914914914915 	300.0249338604366 	0.06462628885346539 	101354.48154477
-1.162412412412412 	300.0248323397565 	0.07491923275578133 	101354.3594370431
-1.15990990990991 	300.0253053088343 	0.07306529403099027 	101354.919013877
-1.157407407407407 	300.0256896998429 	0.07441127380671035 	101355.3733745729
-1.154904904904904 	300.0260816808897 	0.07554763305343853 	101355.8368707546
-1.152402402402403 	300.0264804224951 	0.07670073010549849 	101356.3083630648
-1.1498998998999 	300.0268806687346 	0.0778570919938977 	101356.7816366937
-1.147397397397397 	300.0272738559893 	0.07899282357691957 	101357.2465657023
-1.144894894894895 	300.0276509747018 	0.08008302937962467 	101357.6924965167
-1.142392392392392 	300.0280058112646 	0.08111058550853398 	101358.1120809949
-1.13988988988989 	300.0283373157482 	0.08207274624130334 	101358.5040769497
-1.137387387387387 	300.0286503851668 	0.08298330483016507 	101358.8742741939
-1.134884884884885 	300.0289547735447 	0.08386947910125692 	101359.2342061517
-1.132382382382382 	300.0292622668057 	0.08476400108706268 	101359.5978096128
-1.12987987987988 	300.0295828757278 	0.08569458373008633 	101359.9769223896
-1.127377377377377 	300.0299213795323 	0.08667444165466555 	101360.3771965952
-1.124874874874875 	300.0302756365052 	0.08769767760098979 	101360.7961006453
-1.122372372372372 	300.0306374103722 	0.08874153904674988 	101361.2238954754
-1.11986986986987 	300.0309953539567 	0.0897745819022855 	101361.6471632993
-1.117367367367367 	300.0313388599806 	0.09076723343724247 	101362.0533607598
-1.114864864864865 	300.0316611791981 	0.09170039057026676 	101362.4345061261
-1.112362362362362 	300.0319606354955 	0.09256885219012871 	101362.788616966
-1.10985985985986 	300.0322397099923 	0.09337896131505471 	101363.1186266411
-1.107357357357357 	300.0325027931553 	0.09414262060036621 	101363.4297266404
-1.104854854854855 	300.0327540065405 	0.09487142961516848 	101363.7267909675
-1.102352352352353 	300.032996279405 	0.09557409901743444 	101364.013283256
-1.09984984984985 	300.0332319190741 	0.09625779002203805 	101364.2919318822
-1.097347347347347 	300.0334638442229 	0.0969311969202231 	101364.5661883187
-1.094844844844845 	300.0336961922668 	0.09760601014544661 	101364.8409449126
-1.092342342342342 	300.0339335283107 	0.09829475390072512 	101365.121600192
-1.08983983983984 	300.0341789896195 	0.09900584986646715 	101365.4118642667
-1.087337337337337 	300.034432516937 	0.09973890721067122 	101365.7116674257
-1.084834834834835 	300.0346902703999 	0.1004831523642879 	101366.0164694662
-1.082332332332332 	300.0349455666318 	0.101219956034273 	101366.3183669351
-1.07982982982983 	300.0351908500334 	0.1019282273856078 	101366.6084250665
-1.077327327327327 	300.03541985141 	0.1025904061958094 	101366.8792302266
-1.074824824824825 	300.0356292236378 	0.1031970640530932 	101367.1268235804
-1.072322322322323 	300.0358192689534 	0.1037489652747084 	101367.3515621854
-1.06981981981982 	300.0359936253205 	0.104256173336454 	101367.5577477494
-1.067317317317317 	300.0361579683224 	0.1047344107572931 	101367.7520917782
-1.064814814814815 	300.0363180674091 	0.1051996800168621 	101367.9414171419
-1.062312312312312 	300.0364778753641 	0.105663028466928 	101368.1303981348
-1.05980980980981 	300.0366384495114 	0.1061276046263957 	101368.3202854696
-1.057307307307307 	300.036798179084 	0.1065892456560728 	101368.5091746773
-1.054804804804805 	300.0369541268669 	0.1070400742968757 	101368.6935920876
-1.052302302302302 	300.0371037208641 	0.1074730856731727 	101368.8704961905
-1.0497997997998 	300.0372459597966 	0.1078854812613159 	101369.0387026933
-1.047297297297297 	300.0373817005282 	0.1082795347732214 	101369.1992246127
-1.044794794794795 	300.0375131024859 	0.1086611127083357 	101369.3546158234
-1.042292292292292 	300.0376425710593 	0.1090367334543954 	101369.5077206175
-1.03978978978979 	300.0377715317366 	0.1094101196348919 	101369.6602249422
-1.037287287287287 	300.0378993288657 	0.1097791455041554 	101369.8113537793
-1.034784784784785 	300.0380226318387 	0.1101342846370521 	101369.9571684758
-1.032282282282283 	300.038135792525 	0.1104597319525824 	101370.0909900123
-1.02977977977978 	300.0382323659384 	0.1107376842372256 	101370.2051966245
-1.027277277277277 	300.0383074473827 	0.110954765500108 	101370.2939877328
-1.024774774774775 	300.0383598977203 	0.1111080671025195 	101370.3560159356
-1.022272272272272 	300.038393375418 	0.1112079038902183 	101370.3956069654
-1.01976976976977 	300.0384155622041 	0.1112756534994624 	101370.4218448435
-1.017267267267267 	300.0384358056362 	0.1113372866658171 	101370.4457839121
-1.014764764764765 	300.0384621376234 	0.111415178686893 	101370.4769224959
-1.012262262262262 	300.0384988661599 	0.1115214435366026 	101370.52035568
-1.00975975975976 	300.0385455758704 	0.1116550960550262 	101370.5755926608
-1.007257257257257 	300.0385977036774 	0.1118035546452786 	101370.6372374146
-1.004754754754755 	300.0386482528024 	0.1119473212458385 	101370.6970161176
-1.002252252252252 	300.0386898808766 	0.1120657677115836 	101370.746245604
-0.9997497497497498 	300.0387166526883 	0.1121420726488207 	101370.7779068103
-0.9972472472472473 	300.0387250633651 	0.1121661532835923 	101370.7878539821
-0.9947447447447449 	300.0387142448686 	0.112135338905824 	101370.7750613517
-0.9922422422422421 	300.0386855431725 	0.112053256730032 	101370.7411220178
-0.9897397397397399 	300.0386417689412 	0.1119277386426006 	101370.6893577241
-0.9872372372372376 	300.0385863620167 	0.1117684877084452 	101370.6238359318
-0.9847347347347346 	300.0385226814435 	0.1115850717837953 	101370.5485297076
-0.9822322322322323 	300.0384535524136 	0.111385607687324 	101370.4667801087
-0.9797297297297296 	300.0383810748435 	0.1111761740438791 	101370.3810705083
-0.9772272272272275 	300.0383066069675 	0.1109607306781296 	101370.2930071741
-0.9747247247247248 	300.0382308296687 	0.1107412704852972 	101370.2033953866
-0.9722222222222224 	300.0381538007763 	0.1105179611094628 	101370.112303646
-0.9697197197197196 	300.0380749637778 	0.1102892108583581 	101370.0190738392
-0.9672172172172175 	300.0379932117174 	0.1100518891054866 	101369.9223969325
-0.9647147147147147 	300.0379070914915 	0.1098018826696696 	101369.8205545984
-0.9622122122122124 	300.037815061139 	0.1095347923740044 	101369.7117233768
-0.9597097097097099 	300.0377156749296 	0.1092464578084848 	101369.5941935781
-0.9572072072072073 	300.0376076615801 	0.10893319543544 	101369.4664618779
-0.9547047047047047 	300.0374899312156 	0.1085918732692728 	101369.32723934
-0.9522022022022023 	300.0373616590614 	0.108220226384602 	101369.1755507681
-0.9496996996996998 	300.0372226203651 	0.1078177767747972 	101369.0111301971
-0.9471971971971973 	300.037073633969 	0.1073869331713093 	101368.8349459216
-0.9446946946946947 	300.0369166379148 	0.106933079283634 	101368.649289867
-0.9421921921921923 	300.0367540633259 	0.1064628269456478 	101368.457036881
-0.93968968968969 	300.0365876870734 	0.1059809394413735 	101368.260288397
-0.9371871871871872 	300.0364176278142 	0.1054877425559081 	101368.059184982
-0.9346846846846848 	300.036242327546 	0.1049792217862369 	101367.8518842978
-0.9321821821821823 	300.0360598823819 	0.1044505927777466 	101367.6361347497
-0.9296796796796799 	300.035869955268 	0.103901247484605 	101367.4115376323
-0.9271771771771771 	300.0356747236069 	0.1033371162829487 	101367.1806677564
-0.9246746746746748 	300.035477866631 	0.1027679117733115 	101366.9478760047
-0.9221721721721724 	300.0352820563369 	0.1022004573359012 	101366.7163223082
-0.9196696696696698 	300.0350865355177 	0.1016323039393495 	101366.4851116803
-0.9171671671671672 	300.0348864665573 	0.1010501332729732 	101366.2485236896
-0.9146646646646649 	300.034674806271 	0.1004348833272379 	101365.9982294255
-0.9121621621621623 	300.0344458755242 	0.09977129514196138 	101365.7275130166
-0.9096596596596597 	300.0341985205263 	0.0990563305795194 	101365.43500974
-0.9071571571571573 	300.033936921143 	0.09830136818449187 	101365.1256620326
-0.9046546546546547 	300.0336686539634 	0.09752706858699994 	101364.8084294574
-0.9021521521521524 	300.0334012535245 	0.0967541055339317 	101364.4922221194
-0.8996496496496498 	300.0331391161392 	0.09599471036499893 	101364.1822389557
-0.8971471471471473 	300.0328821353755 	0.09524886972904537 	101363.8783544549
-0.894644644644645 	300.0326264785686 	0.09450633735051064 	101363.5760366892
-0.892142142142142 	300.0323668713841 	0.09375276459569452 	101363.2690486157
-0.8896396396396397 	300.0320990918831 	0.09297646666263924 	101362.9523976177
-0.8871371371371374 	300.0318214471212 	0.09217252042873003 	101362.624081661
-0.8846346346346349 	300.0315347452794 	0.09134283340780014 	101362.285056251
-0.8821321321321324 	300.0312411506661 	0.09049314144264893 	101361.937880728
-0.8796296296296297 	300.0309427503083 	0.0896291087865872 	101361.585023165
-0.8771271271271271 	300.0306405140163 	0.08875341064500833 	101361.2276305138
-0.8746246246246248 	300.0303339246967 	0.08786466497861199 	101360.8650914171
-0.8721221221221224 	300.0300212962971 	0.08695832149178827 	101360.4954123051
-0.8696196196196196 	300.0297006757957 	0.0860291367325461 	101360.1162837771
-0.8671171171171175 	300.0293709384436 	0.08507406831581993 	101359.7263757382
-0.8646146146146148 	300.0290323458437 	0.08409369633985488 	101359.3259976055
-0.8621121121121121 	300.0286860845544 	0.08309106498151468 	101358.916552405
-0.8596096096096097 	300.0283332595686 	0.08206919780684593 	101358.4993469049
-0.857107107107107 	300.0279744331976 	0.08102991648943575 	101358.0750462282
-0.8546046046046049 	300.0276100915372 	0.07997484007528953 	101357.6442250584
-0.8521021021021022 	300.0272411564582 	0.0789064949670267 	101357.2079735542
-0.8495995995995997 	300.0268686202283 	0.07782743558046337 	101356.7674651808
-0.8470970970970974 	300.0264927603071 	0.07673848698511858 	101356.3230281139
-0.8445945945945946 	300.0261132113154 	0.07563900670577869 	101355.8742302391
-0.8420920920920922 	300.0257299978191 	0.07452925314922472 	101355.4211005952
-0.8395895895895897 	300.0253439624835 	0.07341116852293395 	101354.9646357873
-0.8370870870870872 	300.0249554819665 	0.07228518385040426 	101354.5052812662
-0.8345845845845846 	300.0245628393297 	0.07114654256001815 	101354.0410070134
-0.8320820820820823 	300.0241628650328 	0.06998733391463055 	101353.5680653242
-0.8295795795795798 	300.0237542264463 	0.06880479998707295 	101353.0848801403
-0.8270770770770772 	300.0233402065681 	0.06760796429050722 	101352.5953330998
-0.8245745745745746 	300.0229273656856 	0.0664138404660857 	101352.1071813839
-0.8220720720720721 	300.0225203610141 	0.0652341934247902 	101351.625932102
-0.8195695695695699 	300.0221174941092 	0.06406436486463565 	101351.1495774547
-0.817067067067067 	300.0217114229578 	0.06288522881586478 	101350.6694364232
-0.8145645645645651 	300.0212947511147 	0.0616775115355049 	101350.1767630601
-0.8120620620620621 	300.0208656444717 	0.06043623396846304 	101349.6693882301
-0.8095595595595597 	300.0204287284331 	0.05917321012519863 	101349.152780907
-0.8070570570570572 	300.0199909839893 	0.05790672003793595 	101348.6351955824
-0.8045545545545546 	300.0195566683034 	0.05664840351433823 	101348.1216660823
-0.8020520520520523 	300.0191254409921 	0.05539805384825389 	101347.6117902105
-0.7995495495495494 	300.0186943232389 	0.05414821442417962 	101347.1020459619
-0.7970470470470474 	300.0182607393106 	0.05289187240019781 	101346.5893878036
-0.7945445445445446 	300.017823738838 	0.05162587842579472 	101346.0726919306
-0.7920420420420423 	300.0173830422096 	0.05034894029067468 	101345.5516277781
-0.7895395395395397 	300.0169378344619 	0.04905881719574643 	101345.0252318736
-0.7870370370370371 	300.0164870756325 	0.04775310573615559 	101344.4922746039
-0.7845345345345348 	300.0160310468103 	0.04643298208922917 	101343.9530882097
-0.7820320320320323 	300.0155722451956 	0.04510524427614704 	101343.4106251411
-0.7795295295295296 	300.0151142175495 	0.0437791661634854 	101342.8690790706
-0.7770270270270272 	300.014658946799 	0.04245976529926593 	101342.3307946548
-0.7745245245245247 	300.0142049751731 	0.04114306119960712 	101341.7940485467
-0.7720220220220222 	300.0137480699526 	0.03981793303695206 	101341.2538363283
-0.7695195195195199 	300.0132842374968 	0.03847404651679112 	101340.7054361196
-0.767017017017017 	300.0128129648067 	0.03711031410467329 	101340.1482410326
-0.7645145145145147 	300.0123382442541 	0.03573750556053903 	101339.5869711796
-0.7620120120120122 	300.0118664518869 	0.03437258674469031 	101339.0291651318
-0.7595095095095097 	300.0114023643533 	0.03302816400616156 	101338.4804706781
-0.7570070070070072 	300.0109459044915 	0.03170385148559356 	101337.9407967817
-0.7545045045045048 	300.0104917262059 	0.03038518378003392 	101337.4038230247
-0.7520020020020022 	300.010031953852 	0.02905097513996858 	101336.8602381775
-0.7494994994994997 	300.0095605374952 	0.02768504767680441 	101336.3028890431
-0.7469969969969972 	300.0090768388626 	0.0262859066861848 	101335.7310206254
-0.7444944944944945 	300.0085865448758 	0.02486920123318883 	101335.1513562469
-0.7419919919919924 	300.0080994387215 	0.02346168683445093 	101334.5754622198
-0.7394894894894897 	300.0076251600604 	0.0220897204812176 	101334.0147354833
-0.7369869869869872 	300.0071690069618 	0.02076779490814112 	101333.4754399926
-0.7344844844844846 	300.0067296301206 	0.01949214543765876 	101332.9559809906
-0.7319819819819822 	300.0062994161835 	0.01824169237791937 	101332.4473576327
-0.7294794794794797 	300.00586715072 	0.0169853255729759 	101331.9363117687
-0.7269769769769773 	300.005421799026 	0.01569238938298965 	101331.409797363
-0.7244744744744747 	300.0049560905529 	0.01434270681459528 	101330.8592185972
-0.721971971971972 	300.0044688827969 	0.01293322763786803 	101330.2832244798
-0.7194694694694695 	300.0039657704257 	0.01147976741985261 	101329.6884288017
-0.7169669669669674 	300.0034579343688 	0.01001381903425822 	101329.0880499806
-0.7144644644644647 	300.0029596931621 	0.008575769374956955 	101328.4990154886
-0.711961961961962 	300.0024855883841 	0.007206891670730681 	101327.9385166862
-0.7094594594594597 	300.0020480204704 	0.005942670369497821 	101327.421213514
-0.7069569569569573 	300.001655907089 	0.004808821689301277 	101326.9576483366
-0.7044544544544545 	300.0013142434765 	0.003819911755195718 	101326.5537263889
-0.7019519519519523 	300.0010243232485 	0.002979909470265352 	101326.2109768234
-0.6994494494494495 	300.0007843790994 	0.002283968074908883 	101325.9273101431
-0.6969469469469471 	300.0005904188521 	0.001720791746474384 	101325.6980064618
-0.6944444444444446 	300.0004370787247 	0.00127507443379983 	101325.5167246481
-0.6919419419419421 	300.0003183771468 	0.0009296667955496906 	101325.3763931002
-0.6894394394394396 	300.0002283064721 	0.0006672888160818952 	101325.269909648
-0.6869369369369374 	300.0001612473588 	0.0004717346926380251 	101325.1906308349
-0.6844344344344344 	300.0001122173002 	0.0003286043677335394 	101325.1326663323
-0.6819319319319321 	300.000076984815 	0.0002256448303390677 	101325.0910136806
-0.6794294294294296 	300.0000520840742 	0.0001528022624645283 	101325.0615753963
-0.6769269269269272 	300.0000347637153 	0.0001020829651653482 	101325.0410988228
-0.6744244244244245 	300.000022899613 	6.730601548900755e-05 	101325.0270726898
-0.6719219219219222 	300.0000148921987 	4.381081162497707e-05 	101325.0176060982
-0.6694194194194195 	300.0000095645124 	2.816289599381545e-05 	101325.0113074954
-0.6669169169169172 	300.0000060683876 	1.788448115494189e-05 	101325.0071742372
-0.6644144144144146 	300.0000038046173 	1.122291741873634e-05 	101325.0044979898
-0.661911911911912 	300.0000023577956 	6.961239760035981e-06 	101325.0027875041
-0.6594094094094097 	300.0000014446824 	4.26907208913063e-06 	101325.0017079757
-0.656906906906907 	300.0000008753782 	2.589142781508622e-06 	101325.0010349658
-0.6544044044044046 	300.0000005246955 	1.553307021630937e-06 	101325.0006203718
-0.6519019019019021 	300.0000003111986 	9.220145112965452e-07 	101325.0003679243
-0.6493993993993996 	300.0000001826836 	5.416134983462616e-07 	101325.0002159428
-0.6468968968968971 	300.0000001061529 	3.149266613392635e-07 	101325.0001254531
-0.6443943943943946 	300.0000000610349 	1.81289810540724e-07 	101325.0000721557
-0.6418918918918921 	300.0000000347632 	1.033432899156893e-07 	101325.0000410944
-0.6393893893893897 	300.0000000196131 	5.834382029878958e-08 	101325.0000231788
-0.6368868868868871 	300.0000000109412 	3.263034069509706e-08 	101325.0000129497
-0.6343843843843846 	300.0000000060593 	1.808004586809656e-08 	101325.0000071667
-0.6318818818818821 	300.0000000032836 	9.92783281242611e-09 	101325.000003929
-0.6293793793793795 	300.0000000018142 	5.402789085505795e-09 	101325.0000021333
-0.6268768768768773 	300.0000000009926 	2.914946273656615e-09 	101325.0000011467
-0.6243743743743745 	300.0000000004957 	1.559764386088775e-09 	101325.0000006095
-0.6218718718718721 	300.0000000002783 	8.264866227621237e-10 	101325.0000003195
-0.6193693693693696 	300.0000000000846 	4.357740107230307e-10 	101325.0000001645
-0.6168668668668671 	300.0000000000592 	2.266072320137799e-10 	101325.0000000821
-0.6143643643643645 	300.0000000000554 	1.185176179730816e-10 	101325.000000039
-0.6118618618618621 	300.0000000000082 	6.075750388261551e-11 	101325.0000000166
-0.6093593593593596 	299.9999999999984 	3.224425260674812e-11 	101325.0000000052
-0.6068568568568571 	299.9999999999926 	1.65614808682605e-11 	101324.9999999994
-0.6043543543543546 	299.9999999999612 	9.434295685898564e-12 	101324.9999999964
-0.6018518518518521 	299.9999999999696 	4.099386978093801e-12 	101324.9999999949
-0.5993493493493496 	299.9999999999494 	2.937953347754198e-12 	101324.9999999943
-0.5968468468468471 	299.9999999999583 	1.107458534847201e-12 	101324.9999999939
-0.5943443443443446 	299.9999999999924 	2.241114008451264e-12 	101324.9999999936
-0.591841841841842 	299.9999999999611 	1.412575788437645e-12 	101324.9999999934
-0.5893393393393397 	299.9999999999503 	2.073038816279589e-12 	101324.9999999936
-0.5868368368368371 	299.9999999999949 	2.469375714671831e-12 	101324.9999999934
-0.5843343343343346 	300.0000000000127 	2.881599327960813e-12 	101324.9999999931
-0.5818318318318321 	300.0000000000331 	2.117290053881632e-12 	101324.9999999931
-0.5793293293293297 	299.9999999999887 	3.340247276799883e-12 	101324.9999999931
-0.5768268268268271 	300.0000000000068 	1.38668957627686e-12 	101324.9999999932
-0.5743243243243245 	300.0000000000217 	2.340719011234218e-12 	101324.9999999932
-0.5718218218218221 	300.0000000000173 	1.47859578361151e-12 	101324.9999999932
-0.5693193193193196 	300.0000000000401 	2.025941545521037e-12 	101324.9999999932
-0.5668168168168171 	299.9999999999847 	2.841388975184328e-12 	101324.9999999932
-0.5643143143143147 	299.9999999999532 	2.393490448091418e-12 	101324.9999999933
-0.5618118118118121 	300.0000000000145 	3.473217055204812e-12 	101324.9999999934
-0.5593093093093094 	300.0000000000324 	2.017699089776875e-12 	101324.9999999935
-0.5568068068068072 	300.0000000000196 	2.742309707231937e-12 	101324.9999999937
-0.5543043043043046 	300.0000000000146 	1.882935797407795e-12 	101324.9999999936
-0.551801801801802 	299.9999999999549 	2.336014763840828e-12 	101324.9999999934
-0.5492992992992995 	299.9999999999969 	1.281476911946242e-12 	101324.9999999933
-0.5467967967967969 	300.0000000000133 	2.240879242421329e-12 	101324.9999999928
-0.5442942942942947 	300.0000000000092 	1.497260764830604e-12 	101324.9999999925
-0.5417917917917919 	299.9999999999625 	2.599958183195593e-12 	101324.9999999925
-0.5392892892892895 	299.9999999999349 	9.50405648494948e-13 	101324.9999999928
-0.536786786786787 	299.9999999999558 	2.983054161157667e-12 	101324.999999993
-0.5342842842842846 	299.9999999999613 	9.200499879516631e-13 	101324.9999999932
-0.531781781781782 	299.9999999999369 	4.45369629772351e-12 	101324.9999999933
-0.5292792792792794 	299.999999999931 	1.362398323465731e-12 	101324.9999999932
-0.526776776776777 	299.9999999999133 	5.027188668091851e-12 	101324.9999999931
-0.5242742742742745 	299.9999999999763 	3.290227881323926e-12 	101324.999999993
-0.521771771771772 	300.0000000000138 	5.979261895664799e-12 	101324.9999999931
-0.5192692692692695 	299.9999999999653 	4.163203073032142e-12 	101324.9999999929
-0.516766766766767 	300.0000000000049 	6.193923721799983e-12 	101324.9999999929
-0.5142642642642645 	299.9999999999656 	3.841005601109248e-12 	101324.9999999927
-0.511761761761762 	299.9999999999575 	4.745497102270778e-12 	101324.9999999924
-0.5092592592592596 	299.9999999999739 	3.309107892102331e-12 	101324.9999999923
-0.506756756756757 	299.9999999999483 	4.129424057509826e-12 	101324.9999999922
-0.5042542542542544 	299.9999999999969 	2.161164122331224e-12 	101324.9999999923
-0.5017517517517521 	300.0000000000272 	3.398636397623999e-12 	101324.9999999924
-0.4992492492492494 	300.0000000000309 	7.91911338495007e-13 	101324.9999999925
-0.496746746746747 	299.9999999999889 	3.279850051844167e-12 	101324.9999999924
-0.4942442442442445 	299.9999999999469 	1.00911820114457e-12 	101324.9999999926
-0.4917417417417421 	299.9999999999438 	2.275203200912732e-12 	101324.9999999928
-0.4892392392392395 	299.9999999999613 	9.075479761796995e-13 	101324.9999999927
-0.486736736736737 	299.9999999999633 	2.198677984690144e-12 	101324.9999999927
-0.4842342342342345 	299.9999999999266 	1.618622188789886e-12 	101324.9999999926
-0.481731731731732 	300.0000000000293 	2.501238841466298e-12 	101324.9999999927
-0.4792292292292296 	300.0000000000166 	1.325062876424369e-12 	101324.9999999926
-0.4767267267267268 	299.9999999999614 	4.041006671167882e-12 	101324.9999999926
-0.4742242242242246 	300.0000000000015 	2.19023609865164e-12 	101324.9999999924
-0.471721721721722 	299.9999999999626 	3.363492508563508e-12 	101324.9999999922
-0.4692192192192195 	299.9999999999836 	1.78144092530986e-12 	101324.9999999923
-0.4667167167167169 	299.9999999999192 	2.491288661275648e-12 	101324.9999999922
-0.4642142142142145 	299.9999999999932 	1.564237959931341e-12 	101324.9999999922
-0.461711711711712 	300.0000000000139 	2.238154400321246e-12 	101324.9999999921
-0.4592092092092094 	300.0000000000072 	7.080537955786606e-13 	101324.9999999922
-0.456706706706707 	300.0000000000463 	2.600398673239002e-12 	101324.9999999924
-0.4542042042042045 	299.9999999999466 	1.400136047646927e-12 	101324.9999999923
-0.451701701701702 	299.9999999999559 	3.193703949404478e-12 	101324.9999999926
-0.4491991991991995 	299.9999999999631 	1.982979764967613e-12 	101324.9999999926
-0.4466966966966969 	299.9999999999604 	3.865139426077046e-12 	101324.9999999927
-0.4441941941941945 	299.9999999999981 	1.718974068773832e-12 	101324.9999999926
-0.441691691691692 	299.999999999964 	4.367648770075225e-12 	101324.9999999924
-0.4391891891891895 	299.9999999999901 	9.335221713697988e-13 	101324.9999999923
-0.436686686686687 	299.9999999999714 	4.812553439851036e-12 	101324.9999999922
-0.4341841841841846 	299.9999999999972 	1.681463482417768e-12 	101324.9999999923
-0.431681681681682 	299.9999999999535 	4.852762690844285e-12 	101324.9999999922
-0.4291791791791794 	299.9999999999383 	1.684045322219619e-12 	101324.9999999921
-0.426676676676677 	299.9999999999214 	4.899799802007357e-12 	101324.9999999919
-0.4241741741741744 	299.9999999999695 	2.019709865609052e-12 	101324.9999999919
-0.421671671671672 	300.0000000000044 	3.820815065412274e-12 	101324.9999999921
-0.4191691691691694 	300.0000000000434 	1.642148444276691e-12 	101324.999999992
-0.4166666666666669 	300.0000000000506 	3.313338079836167e-12 	101324.999999992
-0.4141641641641645 	299.9999999999416 	2.401507320744907e-12 	101324.9999999921
-0.411661661661662 	299.9999999999987 	3.192058021871537e-12 	101324.999999992
-0.4091591591591594 	300.0000000000046 	1.818831833501318e-12 	101324.9999999919
-0.406656656656657 	299.9999999999522 	2.622259421615502e-12 	101324.9999999919
-0.4041541541541545 	300.0000000000113 	7.923349390288972e-13 	101324.9999999916
-0.401651651651652 	299.9999999999332 	3.19604369213747e-12 	101324.9999999915
-0.3991491491491494 	300.0000000000023 	1.055388874162671e-12 	101324.9999999914
-0.396646646646647 	299.999999999956 	4.747602975768838e-12 	101324.9999999912
-0.3941441441441444 	299.9999999999794 	1.353496174516525e-12 	101324.9999999914
-0.3916416416416419 	299.9999999999392 	4.688588905325592e-12 	101324.9999999913
-0.3891391391391395 	299.9999999999612 	1.361064518762687e-12 	101324.9999999915
-0.3866366366366368 	299.9999999999606 	4.085171347172639e-12 	101324.9999999917
-0.3841341341341344 	299.999999999997 	2.950130374626503e-12 	101324.9999999917
-0.381631631631632 	299.9999999999511 	3.934812132409474e-12 	101324.9999999916
-0.3791291291291294 	300.0000000000003 	2.615017436003688e-12 	101324.9999999916
-0.3766266266266269 	300.0000000000169 	2.231780544300061e-12 	101324.9999999915
-0.3741241241241244 	300.0000000000185 	2.739307371208249e-12 	101324.9999999915
-0.371621621621622 	300.0000000000164 	1.214740434181598e-12 	101324.9999999916
-0.3691191191191194 	300.0000000000043 	4.414383108894061e-12 	101324.9999999918
-0.366616616616617 	300.000000000003 	1.560790311896069e-12 	101324.9999999918
-0.3641141141141143 	299.9999999999741 	4.615291636716819e-12 	101324.9999999917
-0.3616116116116119 	299.999999999952 	2.813086122947592e-12 	101324.9999999919
-0.3591091091091095 	299.9999999999823 	3.997858379191136e-12 	101324.9999999917
-0.356606606606607 	299.9999999999808 	2.919245321366028e-12 	101324.9999999917
-0.3541041041041044 	299.9999999999905 	2.599118664564241e-12 	101324.9999999919
-0.3516016016016019 	300.0000000000091 	3.712298184236054e-12 	101324.999999992
-0.3490990990990994 	299.9999999999929 	2.334770130991348e-12 	101324.9999999919
-0.346596596596597 	300.0000000000334 	4.241265415482116e-12 	101324.999999992
-0.3440940940940944 	300.0000000000404 	1.662802428938737e-12 	101324.999999992
-0.3415915915915919 	300.0000000000185 	4.137539549408243e-12 	101324.9999999921
-0.3390890890890895 	299.9999999999845 	2.546197771990462e-12 	101324.9999999922
-0.3365865865865869 	300.0000000000148 	3.691410598779143e-12 	101324.9999999922
-0.3340840840840844 	299.9999999999994 	2.763291955304934e-12 	101324.9999999922
-0.3315815815815819 	300.0000000000165 	3.512470206014996e-12 	101324.999999992
-0.3290790790790794 	300.0000000000163 	2.954420495858332e-12 	101324.9999999918
-0.3265765765765769 	299.9999999999347 	4.461486084819301e-12 	101324.9999999917
-0.3240740740740744 	299.999999999993 	3.390451158756412e-12 	101324.9999999917
-0.3215715715715718 	300.0000000000036 	5.322411533629136e-12 	101324.999999992
-0.3190690690690695 	299.9999999999425 	3.231368998566712e-12 	101324.9999999917
-0.3165665665665668 	299.999999999991 	4.703551282581375e-12 	101324.9999999918
-0.3140640640640644 	300.0000000000036 	2.412002584374671e-12 	101324.9999999916
-0.311561561561562 	299.9999999999371 	5.016124861433607e-12 	101324.9999999915
-0.3090590590590593 	299.9999999999922 	1.124340219016995e-12 	101324.9999999916
-0.3065565565565568 	300.0000000000011 	5.431288285516238e-12 	101324.9999999918
-0.3040540540540545 	299.9999999999984 	1.419347196963561e-12 	101324.9999999917
-0.3015515515515518 	300.0000000000252 	5.198253538388722e-12 	101324.9999999918
-0.2990490490490494 	299.9999999999525 	1.432000093829969e-12 	101324.9999999918
-0.2965465465465469 	299.9999999999875 	3.574248368253706e-12 	101324.9999999919
-0.2940440440440444 	299.9999999999951 	2.894091209136982e-12 	101324.999999992
-0.2915415415415418 	300.0000000000017 	3.681428719361867e-12 	101324.9999999919
-0.2890390390390395 	300.0000000000023 	4.394827445700573e-12 	101324.9999999919
-0.2865365365365368 	299.9999999999823 	3.312930109913794e-12 	101324.9999999916
-0.2840340340340343 	299.9999999999957 	5.556690798626096e-12 	101324.9999999917
-0.2815315315315318 	299.9999999999337 	3.580472982805647e-12 	101324.9999999915
-0.2790290290290295 	299.9999999999628 	5.533236489856064e-12 	101324.9999999913
-0.2765265265265269 	300.0000000000023 	3.286316685410893e-12 	101324.9999999913
-0.2740240240240244 	300.0000000000205 	4.085032932219628e-12 	101324.9999999915
-0.2715215215215219 	300.0000000000089 	4.015238456921301e-12 	101324.9999999915
-0.2690190190190194 	299.9999999999492 	4.169474998277799e-12 	101324.9999999915
-0.2665165165165169 	299.9999999999973 	4.794357129433078e-12 	101324.9999999915
-0.2640140140140144 	299.9999999999727 	3.111255773600198e-12 	101324.9999999916
-0.2615115115115119 	300.0000000000005 	4.746518573769776e-12 	101324.999999992
-0.2590090090090094 	299.9999999999403 	2.692971311329661e-12 	101324.9999999923
-0.2565065065065068 	299.9999999999914 	3.99943919383146e-12 	101324.9999999922
-0.2540040040040044 	299.9999999999956 	3.788219693611434e-12 	101324.9999999921
-0.2515015015015019 	300.0000000000308 	3.086724556653574e-12 	101324.9999999921
-0.2489989989989994 	300.0000000000343 	5.14182739473236e-12 	101324.9999999923
-0.2464964964964968 	299.9999999999902 	2.875110297664599e-12 	101324.9999999925
-0.2439939939939944 	299.9999999999952 	6.213287914159889e-12 	101324.9999999928
-0.2414914914914919 	299.9999999999709 	2.202543895060573e-12 	101324.999999993
-0.2389889889889893 	300.0000000000017 	6.263360584407533e-12 	101324.9999999928
-0.2364864864864869 	300.0000000000225 	2.84061121652227e-12 	101324.9999999929
-0.2339839839839843 	299.9999999999432 	7.029661027444095e-12 	101324.9999999929
-0.2314814814814819 	299.9999999999838 	3.288669687968525e-12 	101324.9999999926
-0.2289789789789792 	299.99999999993 	6.331260502670497e-12 	101324.9999999927
-0.2264764764764769 	299.9999999999558 	3.416261490298174e-12 	101324.9999999929
-0.2239739739739743 	299.9999999999663 	4.324546853131543e-12 	101324.9999999926
-0.2214714714714718 	299.9999999999458 	3.341538233972069e-12 	101324.9999999924
-0.2189689689689693 	299.9999999999708 	2.299808670811721e-12 	101324.9999999922
-0.2164664664664669 	299.9999999999831 	3.740651048058846e-12 	101324.9999999923
-0.2139639639639643 	299.9999999999415 	1.618459348251996e-12 	101324.9999999923
-0.2114614614614618 	299.9999999999749 	2.520656242575551e-12 	101324.9999999922
-0.2089589589589593 	299.9999999999925 	2.072408115309266e-12 	101324.9999999924
-0.2064564564564568 	299.9999999999931 	1.516659276999044e-12 	101324.9999999924
-0.2039539539539543 	299.999999999923 	2.083830247451977e-12 	101324.9999999926
-0.2014514514514518 	299.9999999999527 	4.71609361989056e-13 	101324.9999999925
-0.1989489489489494 	299.999999999971 	3.23110721003137e-12 	101324.9999999924
-0.1964464464464468 	299.9999999999951 	5.234509910921911e-13 	101324.9999999924
-0.1939439439439443 	299.9999999999862 	3.562128212863684e-12 	101324.9999999924
-0.1914414414414418 	299.9999999999329 	8.508843720905528e-13 	101324.9999999924
-0.1889389389389393 	300.000000000004 	2.276079921433778e-12 	101324.9999999922
-0.1864364364364368 	300.0000000000351 	1.428658152412132e-12 	101324.9999999922
-0.1839339339339343 	299.9999999999786 	2.7753474803409e-12 	101324.9999999924
-0.1814314314314318 	299.9999999999945 	2.347911981687284e-12 	101324.9999999923
-0.1789289289289293 	299.9999999999144 	3.090618275738256e-12 	101324.9999999923
-0.1764264264264268 	299.9999999999836 	1.76334809088576e-12 	101324.9999999921
-0.1739239239239243 	299.9999999999147 	3.710415872736438e-12 	101324.999999992
-0.1714214214214218 	299.9999999999878 	1.125527695845625e-12 	101324.9999999918
-0.1689189189189193 	299.9999999999559 	4.667174978420201e-12 	101324.9999999919
-0.1664164164164168 	300.0000000000035 	5.069745126584728e-13 	101324.999999992
-0.1639139139139143 	299.9999999999854 	6.419983399008689e-12 	101324.9999999922
-0.1614114114114118 	300.000000000018 	1.183834942046037e-12 	101324.9999999925
-0.1589089089089093 	299.9999999999957 	9.365023367112479e-12 	101324.9999999927
-0.1564064064064068 	299.9999999999836 	1.882006080723748e-12 	101324.9999999927
-0.1539039039039043 	299.9999999999895 	9.855558291523903e-12 	101324.9999999927
-0.1514014014014018 	300.0000000000205 	1.147140840759083e-12 	101324.9999999926
-0.1488988988988993 	299.9999999999876 	8.494305699110119e-12 	101324.9999999924
-0.1463963963963968 	300.0000000000003 	1.371998565106326e-12 	101324.9999999924
-0.1438938938938943 	299.9999999999611 	6.051807597560665e-12 	101324.9999999924
-0.1413913913913918 	299.9999999999386 	4.022545164937189e-13 	101324.9999999924
-0.1388888888888893 	299.9999999999819 	4.204791650822737e-12 	101324.9999999924
-0.1363863863863868 	299.9999999999082 	6.811821091815611e-13 	101324.9999999925
-0.1338838838838843 	299.9999999999303 	2.806422383466045e-12 	101324.9999999929
-0.1313813813813818 	299.9999999999956 	1.026830562610811e-12 	101324.9999999932
-0.1288788788788793 	299.9999999999679 	2.878901337446536e-12 	101324.9999999932
-0.1263763763763768 	299.9999999999771 	6.893971422579225e-13 	101324.9999999933
-0.1238738738738743 	299.9999999999417 	2.665449785006916e-12 	101324.9999999935
-0.1213713713713717 	299.9999999999866 	3.415312619165433e-13 	101324.9999999934
-0.1188688688688693 	300.0000000000081 	4.041449415038143e-12 	101324.999999993
-0.1163663663663668 	299.9999999999231 	4.317533718071609e-13 	101324.9999999928
-0.1138638638638643 	299.9999999999911 	4.554494294866959e-12 	101324.9999999926
-0.1113613613613618 	299.9999999999871 	7.581620692992416e-13 	101324.9999999925
-0.1088588588588592 	299.9999999999779 	5.293900138173879e-12 	101324.9999999924
-0.1063563563563568 	299.9999999999634 	2.881985763907837e-13 	101324.9999999925
-0.1038538538538543 	299.9999999999799 	4.592881365106626e-12 	101324.9999999925
-0.1013513513513517 	300.0000000000112 	1.042039512054336e-12 	101324.9999999928
-0.09884884884884926 	299.9999999999575 	4.107636814555938e-12 	101324.9999999928
-0.09634634634634676 	299.9999999999087 	2.005957709867744e-12 	101324.9999999928
-0.09384384384384425 	299.9999999999382 	3.326512849386554e-12 	101324.999999993
-0.09134134134134177 	300.000000000018 	2.108593066326732e-12 	101324.9999999929
-0.08883883883883925 	300.0000000000049 	3.725718208209711e-12 	101324.9999999927
-0.08633633633633674 	299.9999999999569 	3.117922306061023e-12 	101324.9999999924
-0.08383383383383426 	300.0000000000059 	2.99191865195325e-12 	101324.9999999927
-0.08133133133133173 	299.9999999999747 	2.929958839930556e-12 	101324.9999999927
-0.07882882882882926 	299.9999999999008 	2.357193294021312e-12 	101324.9999999927
-0.07632632632632676 	299.9999999999666 	2.202864911919655e-12 	101324.9999999927
-0.07382382382382424 	299.9999999999126 	1.677606552674214e-12 	101324.9999999924
-0.07132132132132173 	300.0000000000076 	1.422960742064319e-12 	101324.9999999925
-0.06881881881881925 	299.9999999999662 	1.492644981453238e-12 	101324.9999999925
-0.06631631631631671 	299.9999999999101 	1.052227269250898e-12 	101324.9999999925
-0.06381381381381425 	299.9999999999605 	1.387646239950635e-12 	101324.9999999924
-0.06131131131131173 	299.9999999999624 	1.464063946001741e-12 	101324.9999999923
-0.05880880880880923 	299.9999999999318 	1.075517818683721e-12 	101324.9999999924
-0.05630630630630672 	299.9999999999699 	3.957883006491404e-13 	101324.9999999921
-0.05380380380380424 	300.0000000000142 	4.848272091027863e-13 	101324.9999999924
-0.05130130130130173 	300.0000000000092 	8.455045429558744e-13 	101324.9999999926
-0.04879879879879922 	299.9999999999526 	1.45459606856914e-12 	101324.9999999926
-0.04629629629629672 	299.9999999999449 	6.357854468126734e-13 	101324.9999999925
-0.04379379379379422 	299.9999999999283 	8.84754690615932e-13 	101324.9999999926
-0.04129129129129173 	299.9999999999801 	6.289387657188816e-13 	101324.9999999928
-0.03878878878878922 	299.999999999987 	9.4023301354523e-13 	101324.9999999926
-0.03628628628628671 	299.9999999999829 	2.214820374212745e-13 	101324.9999999924
-0.03378378378378422 	299.9999999999401 	3.747167410469746e-13 	101324.9999999924
-0.03128128128128172 	299.9999999999732 	1.070332797951443e-13 	101324.9999999926
-0.02877877877877922 	299.9999999999734 	5.942156474406077e-13 	101324.9999999926
-0.0262762762762767 	299.9999999999158 	8.581406661531303e-13 	101324.9999999925
-0.02377377377377422 	300.0000000000156 	8.721119481892863e-13 	101324.9999999923
-0.0212712712712717 	299.9999999999153 	1.224291212800332e-12 	101324.9999999921
-0.01876876876876921 	299.9999999999766 	7.920100770349266e-13 	101324.9999999919
-0.01626626626626671 	300.0000000000097 	1.064968552508723e-12 	101324.9999999917
-0.0137637637637642 	299.9999999999681 	4.142951155263678e-13 	101324.9999999914
-0.0112612612612617 	300.0000000000121 	8.138935857224901e-13 	101324.9999999915
-0.008758758758759198 	299.9999999999957 	5.618673235162763e-13 	101324.9999999913
-0.006256256256256697 	299.9999999999041 	6.324140890471904e-13 	101324.9999999914
-0.003753753753754195 	299.9999999999566 	2.337196944972878e-13 	101324.9999999914
-0.001251251251251693 	299.9999999999376 	2.070871561654901e-14 	101324.9999999913
0.00125125125125081 	299.9999999999594 	4.442265380441811e-13 	101324.9999999915
0.003753753753753312 	299.9999999999693 	2.931717759529217e-13 	101324.9999999916
0.006256256256255817 	299.9999999999069 	5.118675619005058e-13 	101324.9999999916
0.008758758758758317 	299.9999999999895 	5.255970058175599e-13 	101324.9999999919
0.01126126126126082 	300.000000000007 	2.940890492157277e-13 	101324.9999999922
0.01376376376376332 	299.9999999999727 	3.335897951003163e-13 	101324.9999999922
0.01626626626626582 	300.0000000000073 	8.241079430343272e-13 	101324.9999999921
0.01876876876876833 	299.9999999999599 	4.92909529614191e-13 	101324.999999992
0.02127127127127083 	299.9999999999717 	1.019208722963263e-12 	101324.9999999921
0.02377377377377332 	299.9999999999962 	1.16224670879799e-12 	101324.9999999921
0.02627627627627583 	299.9999999999211 	1.06533388352475e-12 	101324.9999999921
0.02877877877877833 	300.0000000000045 	8.033219389245793e-13 	101324.999999992
0.03128128128128083 	299.9999999999515 	1.753492017702995e-13 	101324.999999992
0.03378378378378333 	299.9999999999176 	9.809388830345477e-13 	101324.9999999922
0.03628628628628584 	299.9999999999765 	1.200921598911097e-12 	101324.9999999922
0.03878878878878834 	299.9999999999803 	1.721811409065671e-12 	101324.9999999923
0.04129129129129084 	299.9999999999793 	2.127455698382005e-12 	101324.9999999922
0.04379379379379333 	299.9999999999478 	2.079550989176761e-12 	101324.9999999922
0.04629629629629585 	299.9999999999044 	1.702256574057706e-12 	101324.9999999922
0.04879879879879834 	299.9999999999606 	1.671936106546573e-12 	101324.9999999921
0.05130130130130085 	300.0000000000111 	1.724449043319078e-12 	101324.9999999922
0.05380380380380335 	300.0000000000151 	1.202201470353196e-12 	101324.9999999923
0.05630630630630584 	299.9999999999897 	9.823467494784353e-13 	101324.9999999923
0.05880880880880836 	299.9999999999337 	9.795226046804877e-13 	101324.9999999923
0.06131131131131085 	299.9999999999808 	1.466467019451705e-12 	101324.9999999924
0.06381381381381336 	299.9999999999692 	1.388744647930394e-12 	101324.9999999925
0.06631631631631586 	299.9999999999069 	1.694142755448296e-12 	101324.9999999926
0.06881881881881835 	299.9999999999557 	1.988320185673087e-12 	101324.9999999927
0.07132132132132088 	299.9999999999899 	2.352755868460627e-12 	101324.9999999924
0.07382382382382337 	299.9999999999202 	2.468967816295343e-12 	101324.9999999924
0.07632632632632587 	299.9999999999757 	2.495487219586972e-12 	101324.9999999925
0.07882882882882837 	299.9999999999488 	2.399610986563801e-12 	101324.9999999925
0.08133133133133086 	299.9999999999895 	2.922743288950214e-12 	101324.9999999926
0.08383383383383337 	299.9999999999874 	2.113490632144053e-12 	101324.9999999927
0.08633633633633589 	299.9999999999208 	2.025593166988418e-12 	101324.9999999929
0.08883883883883838 	300.000000000011 	2.577056602953861e-12 	101324.9999999929
0.09134134134134086 	299.9999999999926 	1.923764036254679e-12 	101324.9999999928
0.09384384384384339 	299.9999999999123 	3.0636198676348e-12 	101324.9999999927
0.09634634634634588 	299.9999999999717 	3.712521255508873e-12 	101324.999999993
0.09884884884884838 	299.9999999999761 	3.927138030891119e-12 	101324.9999999928
0.1013513513513509 	300.0000000000167 	3.61700835164282e-12 	101324.9999999931
0.1038538538538534 	299.9999999999583 	3.531116418484148e-12 	101324.999999993
0.1063563563563559 	300.0000000000113 	3.917602271204415e-12 	101324.9999999927
0.1088588588588584 	300.0000000000247 	3.439158271216711e-12 	101324.9999999929
0.1113613613613609 	299.9999999999328 	3.809410941201639e-12 	101324.9999999928
0.1138638638638634 	299.9999999999537 	3.261153127300634e-12 	101324.9999999928
0.1163663663663659 	299.9999999999534 	3.126828835090273e-12 	101324.9999999928
0.1188688688688684 	299.9999999999728 	2.956587081306693e-12 	101324.9999999925
0.1213713713713709 	299.9999999999947 	2.17596001972977e-12 	101324.9999999925
0.1238738738738734 	299.9999999999375 	2.37912039027664e-12 	101324.9999999928
0.1263763763763759 	299.9999999999875 	2.403779641641455e-12 	101324.999999993
0.1288788788788784 	299.9999999999902 	2.47250203103234e-12 	101324.9999999929
0.1313813813813809 	299.999999999989 	2.44685703841005e-12 	101324.9999999929
0.1338838838838834 	299.9999999999785 	2.140426415514421e-12 	101324.9999999929
0.1363863863863859 	300.0000000000232 	2.028193436024197e-12 	101324.9999999928
0.1388888888888884 	300.0000000000387 	2.137906061401082e-12 	101324.9999999929
0.1413913913913909 	300.000000000001 	1.890600217986425e-12 	101324.9999999931
0.1438938938938934 	299.9999999999949 	2.318454907133321e-12 	101324.9999999931
0.1463963963963959 	299.9999999999675 	1.467667697026609e-12 	101324.999999993
0.1488988988988985 	299.9999999999267 	2.056618953311664e-12 	101324.9999999928
0.1514014014014009 	299.9999999999705 	8.346912040167548e-13 	101324.9999999925
0.1539039039039035 	299.9999999999675 	2.952730133491589e-12 	101324.9999999923
0.1564064064064059 	299.999999999947 	9.953623396823927e-13 	101324.9999999922
0.1589089089089084 	299.9999999999836 	4.480586333630569e-12 	101324.9999999921
0.1614114114114109 	299.9999999999799 	1.378149218792466e-12 	101324.9999999922
0.1639139139139134 	299.9999999999215 	3.117117984930088e-12 	101324.9999999923
0.166416416416416 	300.0000000000072 	2.670459862735416e-12 	101324.9999999922
0.1689189189189185 	300.0000000000218 	2.763441145027101e-12 	101324.9999999923
0.1714214214214209 	299.9999999999947 	3.522234932823514e-12 	101324.9999999926
0.1739239239239235 	299.9999999999854 	2.36575408645309e-12 	101324.9999999928
0.1764264264264259 	299.9999999999712 	4.646236583289625e-12 	101324.9999999926
0.1789289289289284 	300.0000000000016 	2.126140136880607e-12 	101324.9999999927
0.181431431431431 	299.9999999999679 	4.388493659544217e-12 	101324.9999999929
0.1839339339339334 	299.9999999999738 	1.936127215840748e-12 	101324.9999999927
0.186436436436436 	299.9999999999375 	3.298955533620353e-12 	101324.9999999929
0.1889389389389385 	299.9999999999845 	2.762832504844362e-12 	101324.9999999928
0.191441441441441 	299.9999999999815 	2.189266209994875e-12 	101324.9999999925
0.1939439439439434 	299.9999999999327 	3.178911352020233e-12 	101324.9999999922
0.196446446446446 	299.9999999999556 	1.171086828685322e-12 	101324.9999999922
0.1989489489489485 	299.99999999997 	3.526371853304195e-12 	101324.9999999922
0.2014514514514509 	299.9999999999861 	1.281839165504082e-12 	101324.999999992
0.2039539539539535 	299.9999999999931 	2.85561498612733e-12 	101324.9999999919
0.2064564564564559 	299.9999999999633 	1.720117946898024e-12 	101324.9999999919
0.2089589589589585 	299.9999999999867 	2.272939977908996e-12 	101324.9999999917
0.211461461461461 	299.9999999999415 	2.804332798899027e-12 	101324.9999999916
0.2139639639639635 	299.9999999999828 	2.458951119083268e-12 	101324.9999999912
0.2164664664664659 	299.9999999999961 	3.373740056775398e-12 	101324.9999999913
0.2189689689689684 	299.9999999999964 	1.053384043042763e-12 	101324.9999999916
0.221471471471471 	299.9999999999929 	3.580425988089335e-12 	101324.9999999916
0.2239739739739735 	299.9999999999622 	1.573564311196259e-12 	101324.9999999917
0.226476476476476 	299.9999999999819 	3.396109945823813e-12 	101324.9999999919
0.2289789789789785 	299.9999999999933 	2.685664344627342e-12 	101324.999999992
0.231481481481481 	299.9999999999906 	2.809184781680873e-12 	101324.9999999917
0.2339839839839835 	299.9999999999886 	2.982303069494409e-12 	101324.9999999919
0.236486486486486 	300.0000000000177 	1.597009846861193e-12 	101324.9999999921
0.2389889889889885 	300.0000000000015 	2.633387447655788e-12 	101324.9999999921
0.241491491491491 	299.9999999999375 	5.32388537749748e-13 	101324.9999999923
0.2439939939939935 	299.9999999999819 	3.718387053290042e-12 	101324.9999999924
0.246496496496496 	299.9999999999926 	1.420444105581514e-12 	101324.9999999926
0.2489989989989985 	300.0000000000289 	3.613623772463981e-12 	101324.9999999926
0.251501501501501 	300.0000000000243 	2.885176687821627e-12 	101324.9999999925
0.2540040040040035 	299.9999999999928 	3.20401852907143e-12 	101324.9999999925
0.256506506506506 	300.0000000000219 	3.642225369387039e-12 	101324.9999999925
0.2590090090090086 	299.9999999999225 	2.194048917688451e-12 	101324.9999999925
0.261511511511511 	299.9999999999985 	4.95025912217201e-12 	101324.9999999924
0.2640140140140135 	299.9999999999928 	2.053559981012157e-12 	101324.9999999924
0.2665165165165161 	299.9999999999411 	4.030543456585371e-12 	101324.9999999924
0.2690190190190185 	300.0000000000045 	3.381153237019405e-12 	101324.9999999923
0.271521521521521 	300.0000000000075 	4.28901581345457e-12 	101324.9999999923
0.2740240240240235 	300.0000000000122 	3.96059055492758e-12 	101324.999999992
0.276526526526526 	300.0000000000055 	3.480438881051868e-12 	101324.9999999917
0.2790290290290286 	299.9999999999524 	4.862843167431081e-12 	101324.9999999916
0.281531531531531 	299.9999999999378 	3.417904385839468e-12 	101324.9999999918
0.2840340340340335 	299.9999999999782 	5.248976221980595e-12 	101324.999999992
0.2865365365365361 	299.9999999999674 	3.004586532590504e-12 	101324.9999999923
0.2890390390390385 	299.999999999999 	3.226893841391829e-12 	101324.9999999924
0.291541541541541 	299.9999999999988 	2.203796497804884e-12 	101324.9999999924
0.2940440440440436 	299.9999999999913 	1.531053546953383e-12 	101324.9999999927
0.296546546546546 	299.9999999999943 	2.750457507144872e-12 	101324.9999999926
0.2990490490490486 	299.9999999999463 	9.25766461341523e-13 	101324.9999999925
0.3015515515515511 	300.0000000000248 	4.513739883076398e-12 	101324.9999999923
0.3040540540540535 	299.9999999999937 	1.938028165114445e-12 	101324.9999999922
0.3065565565565562 	299.9999999999984 	4.854320087982772e-12 	101324.999999992
0.3090590590590585 	299.9999999999926 	1.458596740903173e-12 	101324.9999999916
0.3115615615615611 	299.9999999999508 	4.254029832218223e-12 	101324.9999999913
0.3140640640640635 	300.0000000000053 	1.423598496522272e-12 	101324.9999999914
0.316566566566566 	299.9999999999927 	4.199277431633516e-12 	101324.9999999911
0.3190690690690687 	299.9999999999578 	2.819830102838289e-12 	101324.9999999914
0.3215715715715711 	300.0000000000115 	4.756720149242912e-12 	101324.9999999913
0.3240740740740735 	299.9999999999977 	2.809082711555211e-12 	101324.9999999911
0.326576576576576 	299.9999999999221 	4.309120195031109e-12 	101324.9999999912
0.3290790790790786 	300.0000000000034 	3.236265433899285e-12 	101324.9999999913
0.3315815815815811 	300.0000000000263 	3.120881580587642e-12 	101324.9999999916
0.3340840840840836 	299.9999999999879 	1.786744043360895e-12 	101324.999999992
0.3365865865865861 	300.0000000000426 	2.160682047152917e-12 	101324.9999999921
0.3390890890890886 	300.00000000004 	6.90183026469384e-13 	101324.9999999923
0.3415915915915911 	300.0000000000009 	1.638188137535785e-12 	101324.9999999924
0.3440940940940935 	299.9999999999563 	5.908427949512846e-13 	101324.9999999924
0.3465965965965962 	300.0000000000281 	2.48497293487726e-12 	101324.9999999924
0.3490990990990985 	300.0000000000218 	1.044540729279582e-12 	101324.9999999924
0.3516016016016011 	299.9999999999891 	1.947413054021112e-12 	101324.9999999923
0.3541041041041035 	300.0000000000033 	1.763220534417394e-12 	101324.999999992
0.3566066066066061 	299.9999999999652 	1.115627033026298e-12 	101324.9999999919
0.3591091091091085 	299.9999999999341 	1.857296647846774e-12 	101324.9999999917
0.3616116116116112 	299.9999999999482 	1.048234806203029e-12 	101324.9999999918
0.3641141141141137 	299.9999999999425 	2.923710867870975e-12 	101324.9999999916
0.3666166166166161 	299.9999999999387 	1.335954397776274e-12 	101324.9999999917
0.3691191191191185 	300.0000000000319 	3.384304356116976e-12 	101324.9999999915
0.371621621621621 	300.000000000007 	2.220584213571449e-12 	101324.9999999916
0.3741241241241237 	300.0000000000358 	1.578858596161356e-12 	101324.9999999918
0.3766266266266261 	300.0000000000231 	1.720211983441019e-12 	101324.9999999917
0.3791291291291286 	299.9999999999868 	1.227313113896998e-12 	101324.9999999919
0.3816316316316311 	299.9999999999339 	9.776011403642185e-13 	101324.9999999919
0.3841341341341336 	300.0000000000077 	1.437844175971992e-12 	101324.999999992
0.3866366366366362 	299.9999999999982 	5.85135522475051e-13 	101324.9999999918
0.3891391391391387 	299.9999999999623 	1.114369008575985e-12 	101324.9999999915
0.391641641641641 	299.9999999999916 	2.277174976486952e-13 	101324.9999999915
0.3941441441441436 	300.0000000000073 	1.011743896739929e-12 	101324.9999999916
0.3966466466466462 	300.0000000000011 	6.185885378228374e-13 	101324.9999999916
0.3991491491491486 	299.9999999999596 	5.835278592309058e-13 	101324.9999999915
0.4016516516516512 	299.9999999999339 	1.207598332660464e-12 	101324.9999999913
0.4041541541541536 	299.9999999999565 	1.25490519242474e-12 	101324.9999999913
0.4066566566566561 	299.9999999999566 	5.329360423748988e-13 	101324.9999999915
0.4091591591591587 	299.999999999994 	2.134987682338202e-12 	101324.9999999918
0.4116616616616612 	300.0000000000043 	2.203721305401808e-13 	101324.9999999919
0.4141641641641635 	300.0000000000309 	3.514724525656671e-13 	101324.9999999922
0.4166666666666662 	299.9999999999961 	3.981953099946989e-13 	101324.9999999922
0.4191691691691687 	299.9999999999536 	1.43712510744691e-12 	101324.9999999921
0.421671671671671 	300.000000000008 	1.765177318398545e-12 	101324.9999999921
0.4241741741741737 	299.9999999999759 	2.118050248481207e-12 	101324.9999999918
0.4266766766766761 	299.9999999999565 	2.954720776884782e-12 	101324.9999999917
0.4291791791791785 	300.0000000000144 	2.599368398110052e-12 	101324.9999999916
0.4316816816816812 	300.0000000000072 	3.155805438680618e-12 	101324.9999999917
0.4341841841841836 	299.999999999984 	2.137583967398545e-12 	101324.9999999917
0.4366866866866862 	299.9999999999354 	2.363147238778094e-12 	101324.9999999917
0.4391891891891885 	299.999999999993 	1.560103862242985e-12 	101324.9999999917
0.4416916916916913 	299.9999999999846 	1.153585621058036e-12 	101324.9999999917
0.4441941941941936 	299.9999999999885 	1.809559272730521e-12 	101324.9999999916
0.4466966966966961 	299.999999999933 	5.885341575343989e-13 	101324.9999999916
0.4491991991991987 	299.9999999999865 	7.727359874497432e-13 	101324.9999999917
0.4517017017017012 	299.9999999999847 	2.614560098511558e-13 	101324.9999999918
0.4542042042042035 	299.9999999999877 	1.343251372474614e-13 	101324.9999999919
0.4567067067067062 	299.9999999999967 	2.928213564574422e-13 	101324.999999992
0.4592092092092087 	299.9999999999409 	8.503939100282093e-13 	101324.9999999919
0.4617117117117112 	300.000000000016 	6.615264216192255e-13 	101324.9999999921
0.4642142142142137 	299.9999999999701 	4.652283366423261e-13 	101324.9999999921
0.4667167167167162 	299.9999999999934 	3.398646412435503e-13 	101324.9999999922
0.4692192192192187 	299.9999999999649 	2.466258010489125e-13 	101324.9999999921
0.4717217217217212 	300.0000000000089 	4.893765850930658e-13 	101324.9999999921
0.4742242242242236 	299.9999999999658 	3.888881418307374e-13 	101324.9999999922
0.4767267267267262 	299.9999999999808 	7.414012651811671e-13 	101324.999999992
0.4792292292292287 	300.0000000000148 	3.349851924286286e-13 	101324.9999999921
0.4817317317317312 	300.0000000000288 	1.431040199813032e-13 	101324.9999999923
0.4842342342342336 	299.9999999999878 	5.206914159400072e-13 	101324.9999999921
0.4867367367367362 	299.9999999999625 	9.711208250607375e-13 	101324.999999992
0.4892392392392387 	300.0000000000229 	5.624451622782503e-13 	101324.9999999922
0.4917417417417412 	300.0000000000038 	2.04787456840819e-12 	101324.9999999922
0.4942442442442437 	299.9999999999242 	1.12131699214767e-12 	101324.999999992
0.4967467467467462 	299.999999999939 	2.417933108346533e-12 	101324.9999999919
0.4992492492492487 	299.9999999999364 	5.333057969417727e-13 	101324.999999992
0.5017517517517511 	299.9999999999656 	1.300409504225786e-12 	101324.9999999919
0.5042542542542537 	299.9999999999714 	1.194880003507147e-13 	101324.9999999919
0.5067567567567562 	299.9999999999568 	2.500639346690469e-13 	101324.9999999916
0.5092592592592589 	299.9999999999791 	3.603938300579903e-13 	101324.9999999918
0.5117617617617611 	299.9999999999665 	1.674674026691299e-12 	101324.9999999918
0.5142642642642637 	299.9999999999872 	1.553329731296479e-12 	101324.999999992
0.5167667667667663 	299.9999999999761 	2.347191539541466e-12 	101324.9999999923
0.5192692692692688 	299.9999999999368 	3.473182884578756e-12 	101324.9999999926
0.5217717717717714 	299.9999999999482 	2.890043143353141e-12 	101324.9999999928
0.5242742742742736 	299.9999999999502 	3.239764312451577e-12 	101324.9999999929
0.5267767767767763 	299.999999999965 	2.093359213354374e-12 	101324.9999999927
0.5292792792792789 	299.9999999999495 	2.709090785453382e-12 	101324.9999999925
0.5317817817817813 	299.9999999999291 	9.179560761307335e-13 	101324.9999999927
0.5342842842842837 	300.0000000000136 	1.896199727713155e-12 	101324.9999999928
0.5367867867867864 	300.0000000000014 	9.53773894623743e-13 	101324.9999999927
0.5392892892892888 	299.9999999999651 	1.592485434432677e-12 	101324.9999999925
0.5417917917917912 	300.0000000000014 	4.201839413786479e-13 	101324.9999999925
0.5442942942942938 	299.9999999999878 	1.056358703879891e-12 	101324.9999999928
0.5467967967967964 	299.9999999999657 	1.991692024385554e-13 	101324.9999999928
0.5492992992992988 	299.9999999999573 	7.117555076177865e-13 	101324.9999999929
0.5518018018018012 	299.9999999999478 	5.360028774077868e-13 	101324.9999999929
0.5543043043043039 	300.0000000000161 	7.323432854818313e-13 	101324.9999999929
0.5568068068068063 	299.9999999999921 	8.60700188610872e-13 	101324.9999999928
0.5593093093093087 	299.9999999999226 	8.822443994842913e-13 	101324.9999999928
0.5618118118118114 	299.9999999999675 	1.12488459901103e-12 	101324.9999999927
0.5643143143143137 	299.9999999999516 	3.840126426431563e-13 	101324.9999999925
0.5668168168168163 	299.9999999999939 	8.463748216283793e-13 	101324.9999999924
0.5693193193193188 	300.0000000000277 	8.565951577419334e-13 	101324.9999999924
0.5718218218218213 	300.0000000000227 	7.058435626231211e-13 	101324.9999999925
0.5743243243243239 	300.0000000000072 	1.352913113818626e-12 	101324.9999999924
0.5768268268268262 	300.0000000000066 	2.068280639211886e-12 	101324.9999999925
0.5793293293293288 	299.9999999999617 	2.190907222237953e-12 	101324.9999999924
0.5818318318318314 	299.9999999999356 	2.921118381232458e-12 	101324.9999999926
0.5843343343343338 	299.9999999999811 	2.265736066370001e-12 	101324.9999999926
0.5868368368368363 	299.999999999977 	2.863193503600989e-12 	101324.9999999925
0.5893393393393387 	299.9999999999565 	1.357840510609741e-12 	101324.9999999926
0.5918418418418413 	299.9999999999534 	2.126274026613996e-12 	101324.9999999927
0.5943443443443439 	300.0000000000124 	1.120805973908902e-12 	101324.9999999928
0.5968468468468463 	300.0000000000147 	1.205322806534728e-12 	101324.9999999928
0.5993493493493487 	300.0000000000372 	1.109878792647189e-12 	101324.9999999928
0.6018518518518514 	299.9999999999831 	9.616739355764199e-13 	101324.9999999927
0.6043543543543537 	299.9999999999936 	8.167225248698607e-13 	101324.9999999926
0.6068568568568564 	299.9999999999847 	1.763891098896339e-12 	101324.9999999926
0.6093593593593587 	299.9999999999475 	1.086355801368171e-12 	101324.9999999927
0.6118618618618614 	299.9999999999386 	1.618599261856054e-12 	101324.9999999926
0.6143643643643638 	300.0000000000088 	1.659566905532604e-12 	101324.9999999926
0.6168668668668662 	299.9999999999835 	3.079303864821472e-12 	101324.9999999927
0.6193693693693688 	299.9999999999652 	1.802867905469375e-12 	101324.9999999928
0.6218718718718714 	299.9999999999733 	3.164461279892341e-12 	101324.9999999929
0.6243743743743737 	299.9999999999502 	1.880911490136675e-12 	101324.9999999928
0.6268768768768762 	299.9999999999404 	3.248072128920337e-12 	101324.9999999929
0.629379379379379 	299.9999999999596 	1.646094789484936e-12 	101324.9999999929
0.6318818818818812 	299.9999999999782 	2.046124841339584e-12 	101324.9999999929
0.6343843843843838 	300.0000000000146 	1.599364203818736e-12 	101324.9999999931
0.6368868868868864 	299.9999999999853 	1.282028527333334e-12 	101324.9999999929
0.6393893893893888 	299.9999999999374 	2.791451486445242e-12 	101324.9999999928
0.6418918918918912 	300.0000000000059 	2.080913710540031e-12 	101324.9999999928
0.6443943943943939 	299.9999999999851 	4.172747393303965e-12 	101324.9999999929
0.6468968968968963 	299.9999999999863 	2.867728396234559e-12 	101324.9999999928
0.6493993993993988 	299.9999999999828 	3.253986641230624e-12 	101324.9999999929
0.6519019019019012 	299.9999999999761 	1.883714564438485e-12 	101324.999999993
0.6544044044044038 	299.999999999924 	3.267710764760997e-12 	101324.9999999929
0.6569069069069065 	299.9999999999644 	1.272106778919145e-12 	101324.9999999929
0.6594094094094087 	299.9999999999703 	2.729519232778408e-12 	101324.9999999928
0.6619119119119113 	299.9999999999607 	1.35708861223849e-12 	101324.9999999927
0.664414414414414 	300.0000000000011 	2.733281293333754e-12 	101324.9999999926
0.6669169169169162 	300.0000000000177 	1.489005148324025e-12 	101324.9999999925
0.6694194194194188 	299.9999999999902 	2.462798511047253e-12 	101324.9999999923
0.6719219219219214 	299.9999999999394 	1.434613018473851e-12 	101324.9999999924
0.674424424424424 	299.9999999999778 	2.236990729716259e-12 	101324.9999999925
0.6769269269269262 	299.9999999999333 	1.372023492982502e-12 	101324.9999999927
0.679429429429429 	300.0000000000043 	1.792851839586821e-12 	101324.9999999929
0.6819319319319311 	299.9999999999862 	1.259947859735206e-12 	101324.9999999931
0.6844344344344341 	299.9999999999953 	2.260885289979553e-12 	101324.9999999931
0.686936936936936 	299.9999999999906 	1.405683021539445e-12 	101324.9999999931
0.6894394394394392 	299.9999999999845 	2.09797991500748e-12 	101324.999999993
0.6919419419419413 	299.9999999999892 	1.778617789923497e-12 	101324.9999999929
0.694444444444444 	299.9999999999548 	1.810633389382655e-12 	101324.999999993
0.6969469469469463 	299.9999999999459 	1.593380399769697e-12 	101324.9999999931
0.6994494494494489 	299.9999999999353 	5.163328193412487e-13 	101324.9999999932
0.7019519519519515 	299.999999999989 	1.728768424225929e-12 	101324.9999999932
0.7044544544544538 	299.9999999999578 	1.564858564843597e-12 	101324.999999993
0.7069569569569564 	299.999999999996 	1.858343842894177e-12 	101324.9999999929
0.7094594594594589 	299.9999999999719 	1.830677420031188e-12 	101324.9999999928
0.7119619619619615 	299.9999999999299 	1.524531552715492e-12 	101324.9999999929
0.7144644644644638 	299.9999999999603 	1.277453523812981e-12 	101324.999999993
0.7169669669669665 	299.9999999999396 	4.505134466549575e-13 	101324.999999993
0.7194694694694688 	299.9999999999942 	7.044720513288476e-13 	101324.9999999932
0.7219719719719715 	299.9999999999908 	1.865398302218722e-13 	101324.9999999933
0.7244744744744737 	300.0000000000027 	3.907396553787278e-13 	101324.9999999934
0.7269769769769764 	299.9999999999951 	8.142032545338285e-13 	101324.9999999935
0.7294794794794791 	299.9999999999893 	1.748352804758173e-12 	101324.9999999936
0.7319819819819813 	299.9999999999868 	8.115640380946935e-13 	101324.9999999937
0.7344844844844839 	299.9999999999392 	6.799449207802199e-13 	101324.9999999937
0.7369869869869864 	299.9999999999612 	1.446570687103896e-12 	101324.9999999937
0.739489489489489 	299.9999999999505 	1.506685225917069e-12 	101324.9999999939
0.7419919919919914 	299.9999999999404 	1.574380418866451e-12 	101324.999999994
0.7444944944944939 	299.9999999999833 	2.564141608431011e-12 	101324.9999999941
0.7469969969969963 	299.999999999979 	1.396628170912671e-12 	101324.9999999942
0.7494994994994989 	299.9999999999554 	2.924470199620363e-12 	101324.9999999943
0.7520020020020015 	299.9999999999741 	1.77551929699829e-12 	101324.9999999943
0.7545045045045039 	299.9999999999731 	2.8413642520629e-12 	101324.9999999944
0.7570070070070062 	299.9999999999537 	7.646117516294573e-13 	101324.9999999944
0.7595095095095092 	299.9999999999433 	2.156183455982586e-12 	101324.9999999944
0.7620120120120112 	300.0000000000055 	1.531938171494681e-12 	101324.9999999944
0.7645145145145138 	299.9999999999911 	1.865619285154417e-12 	101324.9999999945
0.7670170170170165 	299.9999999999468 	2.293230464082711e-12 	101324.9999999945
0.7695195195195191 	299.9999999999392 	1.850744144106042e-12 	101324.9999999946
0.7720220220220213 	299.9999999999508 	3.919836824254828e-12 	101324.9999999947
0.7745245245245239 	299.9999999999512 	2.914454011960084e-12 	101324.9999999945
0.7770270270270263 	299.9999999999757 	4.542740331185354e-12 	101324.9999999944
0.779529529529529 	299.9999999999857 	3.427513844657499e-12 	101324.9999999945
0.7820320320320313 	299.9999999999795 	4.096349918307431e-12 	101324.9999999948
0.784534534534534 	299.9999999999989 	3.850999780368789e-12 	101324.9999999948
0.7870370370370364 	299.9999999999942 	3.024859804352154e-12 	101324.9999999947
0.7895395395395389 	299.9999999999835 	3.251050517760635e-12 	101324.9999999947
0.7920420420420413 	299.9999999999787 	2.247074230561254e-12 	101324.9999999947
0.794544544544544 	299.9999999999804 	3.788296550328893e-12 	101324.9999999946
0.7970470470470463 	300.0000000000016 	2.164895539517747e-12 	101324.9999999946
0.799549549549549 	299.9999999999886 	4.493857244608357e-12 	101324.9999999945
0.8020520520520515 	299.9999999999901 	2.047650789209704e-12 	101324.9999999945
0.8045545545545539 	299.9999999999589 	3.908531719000681e-12 	101324.9999999944
0.8070570570570563 	299.9999999999865 	3.053425980578595e-12 	101324.9999999945
0.8095595595595589 	299.9999999999678 	3.737151867091247e-12 	101324.9999999945
0.8120620620620614 	299.9999999999545 	3.48682044647074e-12 	101324.9999999945
0.8145645645645638 	300.0000000000009 	3.29485705053187e-12 	101324.9999999945
0.8170670670670666 	299.9999999999966 	4.111678267092112e-12 	101324.9999999946
0.8195695695695689 	299.999999999985 	3.528543167694127e-12 	101324.9999999947
0.8220720720720714 	299.9999999999601 	5.922610377715008e-12 	101324.9999999946
0.8245745745745739 	299.9999999999949 	4.569893156131345e-12 	101324.9999999946
0.8270770770770765 	299.9999999999843 	6.176164969660015e-12 	101324.9999999946
0.8295795795795788 	299.9999999999628 	5.101489221203189e-12 	101324.9999999946
0.8320820820820815 	300.0000000000119 	5.288665555200492e-12 	101324.9999999947
0.834584584584584 	300.0000000000022 	4.515966896296888e-12 	101324.9999999946
0.8370870870870865 	299.9999999999683 	4.571485746588318e-12 	101324.9999999945
0.8395895895895891 	299.9999999999417 	5.575619064737414e-12 	101324.9999999945
0.8420920920920915 	299.9999999999569 	5.001106373058686e-12 	101324.9999999946
0.844594594594594 	299.9999999999515 	5.284055677942252e-12 	101324.9999999948
0.8470970970970964 	299.9999999999579 	5.116778628147911e-12 	101324.999999995
0.8495995995995991 	299.9999999999901 	4.731691882296161e-12 	101324.9999999953
0.8521021021021015 	299.9999999999836 	4.80514642851153e-12 	101324.9999999953
0.8546046046046039 	299.9999999999799 	4.370505656964793e-12 	101324.9999999952
0.8571071071071066 	299.9999999999975 	5.711657034579378e-12 	101324.9999999952
0.8596096096096089 	299.9999999999706 	4.239755293784468e-12 	101324.9999999952
0.8621121121121116 	299.9999999999444 	6.600087552675694e-12 	101324.9999999952
0.8646146146146139 	299.999999999995 	4.612103817297134e-12 	101324.999999995
0.8671171171171166 	299.9999999999813 	5.865737969044073e-12 	101324.9999999946
0.8696196196196189 	299.9999999999587 	5.25218562380677e-12 	101324.9999999946
0.8721221221221216 	299.9999999999794 	5.972495595566169e-12 	101324.9999999947
0.874624624624624 	300.0000000000049 	5.856816953894217e-12 	101324.9999999947
0.8771271271271264 	300.0000000000003 	5.67373838967189e-12 	101324.9999999947
0.879629629629629 	300.0000000000006 	6.062787480283005e-12 	101324.9999999947
0.8821321321321317 	299.9999999999862 	4.384823673597037e-12 	101324.9999999947
0.8846346346346339 	299.9999999999415 	6.480012598833522e-12 	101324.9999999946
0.8871371371371364 	299.9999999999656 	4.908144557363186e-12 	101324.9999999946
0.8896396396396391 	299.9999999999704 	6.843317843928745e-12 	101324.9999999947
0.8921421421421414 	299.9999999999717 	6.333286530488429e-12 	101324.9999999947
0.8946446446446441 	299.9999999999874 	7.323709304086097e-12 	101324.9999999947
0.8971471471471464 	300.0000000000016 	7.097602510425066e-12 	101324.9999999945
0.8996496496496489 	299.9999999999867 	6.946640764979763e-12 	101324.9999999945
0.9021521521521517 	299.9999999999744 	7.891292262776395e-12 	101324.9999999947
0.9046546546546541 	299.999999999994 	6.775632468826895e-12 	101324.9999999948
0.9071571571571564 	299.9999999999603 	6.998990236386395e-12 	101324.9999999948
0.9096596596596589 	299.99999999996 	6.702775717488267e-12 	101324.9999999948
0.9121621621621616 	300.000000000008 	6.961125476687003e-12 	101324.9999999946
0.9146646646646639 	299.9999999999815 	6.901240015995509e-12 	101324.9999999944
0.9171671671671666 	299.9999999999537 	6.832511106872656e-12 	101324.9999999947
0.9196696696696689 	299.9999999999973 	7.60085843474791e-12 	101324.9999999951
0.9221721721721714 	299.9999999999993 	6.399412724932584e-12 	101324.9999999951
0.9246746746746741 	299.9999999999551 	8.72470468004721e-12 	101324.9999999951
0.9271771771771765 	299.9999999999603 	7.029547433306049e-12 	101324.9999999951
0.9296796796796791 	299.9999999999956 	8.639679928170975e-12 	101324.999999995
0.9321821821821816 	299.9999999999819 	7.59020547433231e-12 	101324.999999995
0.9346846846846838 	299.9999999999642 	8.624170365709588e-12 	101324.9999999949
0.9371871871871866 	300.0000000000138 	8.0868861411111e-12 	101324.9999999949
0.9396896896896891 	300.0000000000141 	8.391317871772256e-12 	101324.999999995
0.9421921921921914 	300.0000000000093 	9.112471599663344e-12 	101324.999999995
0.9446946946946939 	299.9999999999734 	8.160035460466596e-12 	101324.9999999951
0.9471971971971965 	299.9999999999397 	9.569067651553786e-12 	101324.9999999948
0.9496996996996991 	299.9999999999641 	7.63646817508166e-12 	101324.9999999947
0.9522022022022016 	299.9999999999756 	9.049392969078135e-12 	101324.9999999949
0.9547047047047038 	299.9999999999775 	8.256449625173683e-12 	101324.9999999951
0.9572072072072064 	299.9999999999701 	8.641424450470009e-12 	101324.9999999951
0.9597097097097093 	299.9999999999689 	7.847145841319139e-12 	101324.9999999952
0.9622122122122114 	299.9999999999648 	7.547438931603932e-12 	101324.9999999951
0.964714714714714 	299.9999999999619 	8.508694436920148e-12 	101324.9999999949
0.9672172172172167 	299.9999999999665 	7.452391909199628e-12 	101324.9999999949
0.969719719719719 	299.9999999999905 	8.14500850394009e-12 	101324.9999999948
0.9722222222222214 	299.9999999999806 	7.857296357207647e-12 	101324.9999999949
0.9747247247247239 	299.9999999999773 	7.940543338020925e-12 	101324.9999999951
0.9772272272272267 	300.0000000000003 	7.700651515380597e-12 	101324.9999999952
0.9797297297297292 	299.9999999999895 	7.224963729358843e-12 	101324.9999999951
0.9822322322322313 	299.9999999999928 	7.844265265716637e-12 	101324.999999995
0.9847347347347344 	299.9999999999932 	6.3865691375247e-12 	101324.999999995
0.9872372372372363 	299.9999999999607 	8.409857833923457e-12 	101324.999999995
0.9897397397397389 	299.9999999999809 	7.071578411934652e-12 	101324.9999999952
0.9922422422422417 	299.9999999999659 	9.164063213089633e-12 	101324.9999999954
0.9947447447447441 	299.9999999999613 	8.157170634426886e-12 	101324.9999999956
0.9972472472472468 	299.9999999999681 	8.794915226626249e-12 	101324.9999999957
0.999749749749749 	299.9999999999716 	8.25193289021514e-12 	101324.9999999955
1.002252252252252 	299.9999999999883 	8.359608331863203e-12 	101324.9999999953
1.004754754754754 	299.9999999999894 	8.290655742373834e-12 	101324.9999999951
1.007257257257256 	299.9999999999766 	7.69455373956653e-12 	101324.999999995
1.009759759759759 	299.9999999999685 	9.492797232500101e-12 	101324.9999999951
1.012262262262261 	299.9999999999646 	7.696608803705211e-12 	101324.9999999951
1.014764764764764 	299.9999999999438 	8.913193407776089e-12 	101324.999999995
1.017267267267267 	299.9999999999353 	8.140508783614559e-12 	101324.9999999949
1.019769769769769 	299.9999999999657 	9.285053916271837e-12 	101324.999999995
1.022272272272272 	299.9999999999785 	9.29854300548544e-12 	101324.9999999952
1.024774774774774 	299.9999999999837 	9.435552348214955e-12 	101324.9999999953
1.027277277277277 	299.9999999999802 	1.001406587723601e-11 	101324.9999999954
1.029779779779779 	300.0000000000018 	8.668269595936619e-12 	101324.9999999954
1.032282282282282 	300.0000000000017 	8.629681211447237e-12 	101324.9999999953
1.034784784784784 	299.9999999999937 	7.932956513107264e-12 	101324.9999999951
1.037287287287286 	299.9999999999716 	8.501789515868229e-12 	101324.9999999949
1.039789789789789 	299.999999999979 	8.440552342943709e-12 	101324.9999999948
1.042292292292291 	300.0000000000082 	7.92022312488514e-12 	101324.9999999948
1.044794794794794 	300.0000000000171 	7.498451925725364e-12 	101324.9999999948
1.047297297297296 	300.0000000000271 	6.494657477685698e-12 	101324.999999995
1.049799799799799 	299.9999999999936 	8.164167992377197e-12 	101324.9999999951
1.052302302302302 	299.99999999997 	7.017910554229214e-12 	101324.9999999953
1.054804804804804 	299.9999999999543 	8.653217929929844e-12 	101324.9999999954
1.057307307307306 	299.9999999999389 	7.770620758940702e-12 	101324.9999999954
1.059809809809809 	299.9999999999614 	8.512437555089051e-12 	101324.9999999953
1.062312312312312 	299.999999999958 	7.997017991714407e-12 	101324.9999999952
1.064814814814814 	299.9999999999562 	8.884663904069945e-12 	101324.9999999951
1.067317317317317 	299.9999999999417 	9.230628161180234e-12 	101324.9999999951
1.069819819819819 	299.9999999999425 	9.093483256178296e-12 	101324.9999999949
1.072322322322321 	299.9999999999929 	1.06432047074265e-11 	101324.9999999947
1.074824824824824 	300.0000000000161 	9.008939821911464e-12 	101324.9999999944
1.077327327327327 	300.0000000000268 	9.723584196088312e-12 	101324.9999999945
1.079829829829829 	300.0000000000266 	8.152367677517002e-12 	101324.9999999948
1.082332332332332 	300.0000000000016 	8.418603233264113e-12 	101324.9999999949
1.084834834834834 	299.9999999999818 	7.687666679706264e-12 	101324.999999995
1.087337337337337 	299.9999999999545 	7.375351236255777e-12 	101324.9999999952
1.089839839839839 	299.9999999999496 	8.404418597243032e-12 	101324.9999999953
1.092342342342342 	299.9999999999768 	7.121069207186793e-12 	101324.9999999954
1.094844844844844 	299.999999999976 	7.747559620880875e-12 	101324.9999999953
1.097347347347347 	299.9999999999566 	6.251545876203484e-12 	101324.9999999951
1.099849849849849 	299.9999999999444 	8.188374663944113e-12 	101324.999999995
1.102352352352352 	299.9999999999656 	6.585946126581799e-12 	101324.9999999948
1.104854854854854 	299.9999999999854 	8.73642220334285e-12 	101324.9999999947
1.107357357357357 	299.9999999999719 	7.98673556958903e-12 	101324.9999999947
1.109859859859859 	299.9999999999587 	9.380361412337437e-12 	101324.9999999948
1.112362362362362 	300.0000000000143 	8.180221607654425e-12 	101324.999999995
1.114864864864865 	300.0000000000153 	7.994052946768864e-12 	101324.9999999951
1.117367367367367 	299.9999999999727 	8.555183967332002e-12 	101324.9999999953
1.119869869869869 	299.9999999999453 	7.289132572342426e-12 	101324.9999999953
1.122372372372372 	299.9999999999704 	8.330898421097074e-12 	101324.9999999953
1.124874874874874 	299.9999999999651 	7.44845952650088e-12 	101324.9999999952
1.127377377377377 	299.9999999999753 	8.600482192503256e-12 	101324.9999999953
1.129879879879879 	300.0000000000146 	8.123460070061998e-12 	101324.9999999953
1.132382382382382 	300.0000000000165 	8.543784760770178e-12 	101324.9999999952
1.134884884884884 	299.9999999999994 	8.054760047598039e-12 	101324.9999999951
1.137387387387387 	300.0000000000129 	7.653931103900276e-12 	101324.999999995
1.139889889889889 	299.9999999999707 	8.355085138880989e-12 	101324.9999999951
1.142392392392392 	299.9999999999598 	7.300174471838433e-12 	101324.9999999952
1.144894894894894 	300.0000000000098 	7.961526805668866e-12 	101324.9999999952
1.147397397397397 	300.0000000000026 	6.664783048405411e-12 	101324.9999999952
1.149899899899899 	299.9999999999561 	7.167535145300024e-12 	101324.9999999952
1.152402402402402 	299.9999999999463 	6.223002540224333e-12 	101324.9999999953
1.154904904904904 	299.9999999999813 	7.091266772156195e-12 	101324.9999999953
1.157407407407407 	299.9999999999811 	7.084452511305838e-12 	101324.9999999952
1.159909909909909 	299.9999999999542 	7.180835494838001e-12 	101324.9999999953
1.162412412412412 	299.9999999999436 	8.171730383617185e-12 	101324.9999999954
1.164914914914914 	299.9999999999701 	6.770257652630576e-12 	101324.9999999955
1.167417417417417 	299.9999999999817 	7.580072577854053e-12 	101324.9999999957
1.169919919919919 	300.0000000000157 	6.201135024783685e-12 	101324.9999999957
1.172422422422422 	300.0000000000282 	6.455738698466503e-12 	101324.9999999957
1.174924924924925 	299.9999999999889 	5.443701580911354e-12 	101324.9999999958
1.177427427427427 	299.9999999999751 	6.146262919574411e-12 	101324.9999999958
1.179929929929929 	300.0000000000077 	7.041788611969182e-12 	101324.9999999958
1.182432432432432 	300.00000000002 	5.601451475805271e-12 	101324.9999999955
1.184934934934934 	299.9999999999972 	6.334456471432295e-12 	101324.9999999953
1.187437437437437 	299.9999999999849 	6.09403413296382e-12 	101324.9999999952
1.189939939939939 	299.9999999999795 	7.544983030393911e-12 	101324.9999999953
1.192442442442442 	299.9999999999443 	6.752007295664366e-12 	101324.9999999951
1.194944944944944 	299.9999999999488 	7.347223397303951e-12 	101324.9999999949
1.197447447447447 	300.0000000000024 	6.749871192382404e-12 	101324.9999999949
1.199949949949949 	300.0000000000108 	6.720790138128263e-12 	101324.9999999951
1.202452452452452 	299.9999999999648 	7.114033351107164e-12 	101324.9999999952
1.204954954954955 	299.9999999999623 	5.962317072494945e-12 	101324.9999999952
1.207457457457457 	299.9999999999908 	7.144486289113708e-12 	101324.9999999952
1.20995995995996 	299.9999999999844 	6.736062986962841e-12 	101324.9999999951
1.212462462462462 	299.9999999999822 	7.625370186128569e-12 	101324.9999999951
1.214964964964964 	299.9999999999823 	6.785291280496013e-12 	101324.9999999951
1.217467467467467 	299.9999999999815 	7.446384992932916e-12 	101324.9999999951
1.219969969969969 	299.9999999999735 	6.583199647623885e-12 	101324.999999995
1.222472472472472 	300.0000000000072 	6.802074207520648e-12 	101324.9999999951
1.224974974974975 	300.0000000000227 	7.051885821255718e-12 	101324.9999999953
1.227477477477477 	299.9999999999902 	5.756547422235491e-12 	101324.9999999953
1.229979979979979 	299.9999999999892 	6.527524156832007e-12 	101324.9999999952
1.232482482482482 	299.9999999999669 	5.595747788674254e-12 	101324.9999999951
1.234984984984984 	299.9999999999609 	7.039143550493422e-12 	101324.9999999949
1.237487487487487 	299.9999999999871 	6.316081065435089e-12 	101324.9999999948
1.239989989989989 	299.9999999999938 	6.935097017543207e-12 	101324.9999999949
1.242492492492492 	300.0000000000158 	7.346003938509453e-12 	101324.999999995
1.244994994994994 	299.9999999999955 	6.269978551300795e-12 	101324.9999999951
1.247497497497497 	299.9999999999997 	6.886810537553349e-12 	101324.9999999953
1.249999999999999 	300.0000000000574 	5.804583799174041e-12 	101324.9999999954
