-1.25 	299.9773824101272 	0.9269753091847733 	101295.6107373854
-1.247497497497497 	299.9798662652636 	0.9380870506531733 	101301.185642805
-1.244994994994995 	299.9850836736349 	0.9570341530021749 	101307.3935631648
-1.242492492492492 	299.990644753456 	0.9730283039241896 	101313.9394949985
-1.23998998998999 	299.9963547938673 	0.9895041875133197 	101320.6897602768
-1.237487487487487 	300.0021304991889 	1.006198825662161 	101327.5178423572
-1.234984984984985 	300.0078666013152 	1.022777913888103 	101334.2993263571
-1.232482482482482 	300.0134575715756 	1.038938377593725 	101340.9096652062
-1.22997997997998 	300.018801652997 	1.054384493440223 	101347.2284706362
-1.227477477477477 	300.023801157368 	1.068833971937766 	101353.1400405471
-1.224974974974975 	300.0283640464057 	1.08202163950371 	101358.5354997201
-1.222472472472472 	300.0324073552578 	1.09370724526326 	101363.3166970535
-1.21996996996997 	300.0358576067404 	1.103678245924565 	101367.3967355553
-1.217467467467467 	300.038651331097 	1.11175149075203 	101370.7004900146
-1.214964964964965 	300.0407368802251 	1.117778231911784 	101373.1668355569
-1.212462462462462 	300.0420764552438 	1.121649171553489 	101374.7510543604
-1.20995995995996 	300.0426466231609 	1.123295252021063 	101375.425166228
-1.207457457457457 	300.042436714234 	1.122685552688138 	101375.1764846404
-1.204954954954955 	300.0414484227097 	1.119828734106567 	101374.0079823651
-1.202452452452452 	300.0397001432109 	1.114776342166731 	101371.9410136687
-1.19994994994995 	300.0372247557567 	1.107621035393598 	101369.013829224
-1.197447447447447 	300.0340669039009 	1.098493160130147 	101365.2795882776
-1.194944944944945 	300.0302840856579 	1.087558841516685 	101360.8064044854
-1.192442442442442 	300.0259450350013 	1.075016827026288 	101355.6756350825
-1.18993993993994 	300.0211285615205 	1.061095243387376 	101349.9805688525
-1.187437437437437 	300.0159228418238 	1.046048829113432 	101343.82553182
-1.184934934934935 	300.0104236629108 	1.030153881733032 	101337.3237272418
-1.182432432432432 	300.004731750972 	1.013701877742325 	101330.5943652495
-1.17992992992993 	299.9989515743975 	0.9969948963269829 	101323.7609453585
-1.177427427427427 	299.9931897809222 	0.9803411940774569 	101316.9496217211
-1.174924924924925 	299.9875529323866 	0.9640485670402072 	101310.2863302348
-1.172422422422422 	299.9821450476524 	0.9484175426579518 	101303.8939017357
-1.16991991991992 	299.9770655694959 	0.9337360586295864 	101297.8899799534
-1.167417417417417 	299.9724080882527 	0.9202746642106734 	101292.3851280711
-1.164914914914915 	299.9682586223608 	0.9082817598942424 	101287.4808473562
-1.162412412412412 	299.9646938415388 	0.8979788703403866 	101283.2676857588
-1.15990990990991 	299.961779324234 	0.889555544918279 	101279.8231612156
-1.157407407407407 	299.9595679850267 	0.8831649465622489 	101277.2098032917
-1.154904904904904 	299.9580995495032 	0.8789217090077786 	101275.4743409972
-1.152402402402403 	299.9573998858688 	0.8769011148350856 	101274.6475136495
-1.1498998998999 	299.957480962379 	0.8771385981373641 	101274.7437211021
-1.147397397397397 	299.9583420285535 	0.8796286258162662 	101275.76111981
-1.144894894894895 	299.9599660850193 	0.8843230223955577 	101277.679947321
-1.142392392392392 	299.9623214728778 	0.8911324800166374 	101280.4634568391
-1.13988988988989 	299.9653646544261 	0.8999299363473845 	101284.0599341116
-1.137387387387387 	299.9690393920107 	0.9105526308887038 	101288.4029055787
-1.134884884884885 	299.973278008223 	0.9228051099268824 	101293.4125012088
-1.132382382382382 	299.9780030080711 	0.9364633506542465 	101298.9972124891
-1.12987987987988 	299.9831284229606 	0.9512785412267039 	101305.0554075059
-1.127377377377377 	299.9885609210448 	0.9669809268253382 	101311.4768685831
-1.124874874874875 	299.9942014036765 	0.9832841713462657 	101318.1445292502
-1.122372372372372 	299.9999469013894 	0.9998906969204963 	101324.9366469835
-1.11986986986987 	300.0056926784154 	1.016498016259085 	101331.7294602455
-1.117367367367367 	300.0113346063858 	1.032804608179558 	101338.3996759465
-1.114864864864865 	300.016770154948 	1.048514404308258 	101344.8262353399
-1.112362362362362 	300.0219002237895 	1.063341234399335 	101350.8920092367
-1.10985985985986 	300.0266311195234 	1.077014370209222 	101356.4861210503
-1.107357357357357 	300.0308765397948 	1.089284154186088 	101361.5063711423
-1.104854854854855 	300.0345590926797 	1.099926601023325 	101365.8610602415
-1.102352352352353 	300.037611318141 	1.108747251633934 	101369.4705388243
-1.09984984984985 	300.0399774356731 	1.115584683989826 	101372.2686989078
-1.097347347347347 	300.0416140000784 	1.120313398558489 	101374.204147386
-1.094844844844845 	300.0424907220535 	1.122845726170304 	101375.2409890373
-1.092342342342342 	300.0425911124829 	1.123132203522675 	101375.359216543
-1.08983983983984 	300.0419100584632 	1.12116210001718 	101374.553873049
-1.087337337337337 	300.0404585441598 	1.116967215523602 	101372.837855127
-1.084834834834835 	300.0382637829669 	1.110623155457941 	101370.2426117425
-1.082332332332332 	300.0353654166404 	1.102244861461555 	101366.8151975278
-1.07982982982983 	300.0318154110323 	1.091983147621028 	101362.6172687778
-1.077327327327327 	300.0276776908641 	1.080023162806063 	101357.7245883583
-1.074824824824825 	300.0230276357485 	1.066582340775043 	101352.2261366456
-1.072322322322323 	300.017950357192 	1.051907167868103 	101346.2228508881
-1.06981981981982 	300.012539691772 	1.03626846260955 	101339.8256283935
-1.067317317317317 	300.0068959177442 	1.019955860167462 	101333.153009543
-1.064814814814815 	300.0011235992636 	1.003272088650633 	101326.328879964
-1.062312312312312 	299.9953302640844 	0.9865271076297697 	101319.4800577456
-1.05980980980981 	299.9896233656507 	0.9700321639776091 	101312.7338151762
-1.057307307307307 	299.984109010852 	0.9540938953082747 	101306.2155205832
-1.054804804804805 	299.9788898265776 	0.9390085459406281 	101300.0462877839
-1.052302302302302 	299.9740625430542 	0.9250562365111741 	101294.340612551
-1.0497997997998 	299.9697166562419 	0.9124952387435419 	101289.2040736248
-1.047297297297297 	299.9659320775975 	0.9015565365981741 	101284.73108235
-1.044794794794795 	299.9627775775835 	0.8924392628774778 	101281.0029448821
-1.042292292292292 	299.9603100024223 	0.8853074995953675 	101278.0866307179
-1.03978978978979 	299.9585731772332 	0.880288172353286 	101276.0339865391
-1.037287287287287 	299.9575975287509 	0.8774691554206888 	101274.8809195492
-1.034784784784785 	299.9573990059805 	0.876897978900701 	101274.6466785746
-1.032282282282283 	299.9579809759492 	0.8785816546264841 	101275.3344418463
-1.02977977977978 	299.9593314636581 	0.8824851401566948 	101276.9300214271
-1.027277277277277 	299.9614230571552 	0.8885314302312899 	101279.4016145841
-1.024774774774775 	299.964216037621 	0.8966057304749435 	101282.7023630577
-1.022272272272272 	299.9676588679474 	0.9065583786264662 	101286.7712787686
-1.01976976976977 	299.9716884142244 	0.9182065144620261 	101291.5336705932
-1.017267267267267 	299.9762308585907 	0.9313371946095212 	101296.9025372436
-1.014764764764765 	299.9812036482518 	0.9457114828204821 	101302.7802517761
-1.012262262262262 	299.9865166098691 	0.9610687262831502 	101309.0603117313
-1.00975975975976 	299.9920735705218 	0.9771309692577126 	101315.6291082222
-1.007257257257257 	299.9977740571018 	0.9936077630133223 	101322.367878589
-1.004754754754755 	300.0035149744905 	1.010201246476268 	101329.1548202861
-1.002252252252252 	300.0091925689974 	1.02661123910847 	101335.8671663521
-0.9997497497497498 	300.0147038726211 	1.042540427355348 	101342.3832695027
-0.9972472472472473 	300.019948902484 	1.057699847766985 	101348.5848617153
-0.9947447447447449 	300.0248325788758 	1.071814475734306 	101354.3593833756
-0.9922422422422421 	300.0292662186787 	1.084628313058193 	101359.6020577057
-0.9897397397397399 	300.0331693686936 	1.095908587999478 	101364.2176114137
-0.9872372372372376 	300.0364708332252 	1.105449400043511 	101368.121743966
-0.9847347347347346 	300.0391097894433 	1.113075258296065 	101371.2425622612
-0.9822322322322323 	300.0410372261226 	1.118644465096182 	101373.5219975981
-0.9797297297297296 	300.0422167912629 	1.122051986648612 	101374.9170233197
-0.9772272272272275 	300.0426257755068 	1.123231082128256 	101375.4004531639
-0.9747247247247248 	300.0422540834871 	1.122153265352783 	101374.9605181333
-0.9722222222222224 	300.0411047050192 	1.118830929106971 	101373.601730834
-0.9697197197197196 	300.0391982109558 	1.113320377902314 	101371.3475832816
-0.9672172172172175 	300.0365687339132 	1.105718946687059 	101368.2381161806
-0.9647147147147147 	300.0332624643129 	1.096161611335527 	101364.3283809198
-0.9622122122122124 	300.0293387015504 	1.084820006385954 	101359.6886254894
-0.9597097097097099 	300.0248689561773 	1.071900469286899 	101354.4033528561
-0.9572072072072073 	300.0199353251903 	1.057640401086333 	101348.5697755434
-0.9547047047047047 	300.0146290257051 	1.042303636400872 	101342.2959030666
-0.9522022022022023 	300.0090489411631 	1.026175412354809 	101335.6984846942
-0.9496996996996998 	300.0032992129866 	1.009557158940888 	101328.9008699415
-0.9471971971971973 	299.9974877950627 	0.992760731143598 	101322.0306804894
-0.9446946946946947 	299.9917241287358 	0.9761019319492257 	101315.2171404709
-0.9421921921921923 	299.9861162736844 	0.9598936802537684 	101308.588231603
-0.93968968968969 	299.9807693300631 	0.9444393475239603 	101302.2679742462
-0.9371871871871872 	299.9757829241103 	0.9300267760017403 	101296.3740268983
-0.9346846846846848 	299.9712491592858 	0.9169229193906565 	101291.0154824196
-0.9321821821821823 	299.9672516727445 	0.9053687452671408 	101286.2908068163
-0.9296796796796799 	299.9638631163349 	0.8955745908946091 	101282.2859329963
-0.9271771771771771 	299.9611442304463 	0.8877163689833162 	101279.0726984245
-0.9246746746746748 	299.9591431737728 	0.8819326611720169 	101276.7076871026
-0.9221721721721724 	299.9578940097217 	0.8783227228717865 	101275.2314342996
-0.9196696696696698 	299.9574170413037 	0.8769455821950406 	101274.6679108611
-0.9171671671671672 	299.9577190113152 	0.8778206187305528 	101275.0250022073
-0.9146646646646649 	299.9587935243057 	0.8809266263236029 	101276.2945662536
-0.9121621621621623 	299.9606180631652 	0.886200223027134 	101278.4503755678
-0.9096596596596597 	299.9631565694442 	0.8935386597553663 	101281.4503111976
-0.9071571571571573 	299.9663615365428 	0.9028038008763042 	101285.2380964805
-0.9046546546546547 	299.9701740211826 	0.9138245306074231 	101289.743842715
-0.9021521521521524 	299.9745241691887 	0.9263996677229127 	101294.8853660736
-0.8996496496496498 	299.9793334075339 	0.9403015583388126 	101300.5696882347
-0.8971471471471473 	299.9845151668762 	0.955279730646666 	101306.6945030237
-0.894644644644645 	299.9899760485857 	0.9710646820302159 	101313.149677119
-0.892142142142142 	299.9956179372286 	0.9873722385070709 	101319.8190186379
-0.8896396396396397 	300.0013390958205 	1.003908690308541 	101326.5824072852
-0.8871371371371374 	300.0070363830072 	1.020376240399367 	101333.3180282853
-0.8846346346346349 	300.012607509819 	1.036478466862822 	101339.9046299989
-0.8821321321321324 	300.0179519910581 	1.051925686971855 	101346.2237033472
-0.8796296296296297 	300.0229737582764 	1.066439840468009 	101352.1614790639
-0.8771271271271271 	300.0275822450157 	1.079758891818666 	101357.6107139504
-0.8746246246246248 	300.0316936405441 	1.091641247769914 	101362.472511247
-0.8721221221221224 	300.0352331661912 	1.101870072595475 	101366.6580833741
-0.8696196196196196 	300.0381355465886 	1.110257170524603 	101370.0903530165
-0.8671171171171175 	300.0403467084972 	1.116646491584511 	101372.7053804677
-0.8646146146146148 	300.041825008963 	1.120916992259318 	101374.4535894203
-0.8621121121121121 	300.0425411680934 	1.122984472767812 	101375.3005503957
-0.8596096096096097 	300.042479704989 	1.122802164751389 	101375.2273013859
-0.857107107107107 	300.0416362139506 	1.120362718489056 	101374.2300256499
-0.8546046046046049 	300.040023965752 	1.115702729195449 	101372.3239643187
-0.8521021021021022 	300.0376715791381 	1.108902257415902 	101369.542232848
-0.8495995995995997 	300.0346199189361 	1.100080555887657 	101365.9335182812
-0.8470970970970974 	300.0309230483622 	1.089394507063574 	101361.5620218703
-0.8445945945945946 	300.0266478153003 	1.077037009367553 	101356.5066997634
-0.8420920920920922 	300.0218723647725 	1.063234205412247 	101350.8600812489
-0.8395895895895897 	300.0166852392254 	1.048242121910914 	101344.7269928223
-0.8370870870870872 	300.0111838794527 	1.032341749483683 	101338.2225260149
-0.8345845845845846 	300.0054718586061 	1.015832957820972 	101331.4694235276
-0.8320820820820823 	299.9996575461374 	0.9990284483309062 	101324.595658425
-0.8295795795795798 	299.9938513839854 	0.9822471291231439 	101317.731763229
-0.8270770770770772 	299.9881630540569 	0.9658066134247365 	101311.0076624004
-0.8245745745745746 	299.9826999679619 	0.9500166017237712 	101304.5499237184
-0.8220720720720721 	299.9775644066757 	0.9351733982528724 	101298.4797032441
-0.8195695695695699 	299.9728522634441 	0.9215536728521856 	101292.910177517
-0.817067067067067 	299.968650277783 	0.9094080635677445 	101287.9437144321
-0.8145645645645651 	299.9650343903824 	0.898956974485134 	101283.6702483533
-0.8120620620620621 	299.9620696568395 	0.8903876829640518 	101280.1663390191
-0.8095595595595597 	299.9598080919028 	0.883850677282017 	101277.4935008396
-0.8070570570570572 	299.958287864481 	0.8794568988161235 	101275.6969049103
-0.8045545545545546 	299.9575336857991 	0.8772776334820153 	101274.805580508
-0.8020520520520523 	299.9575561796947 	0.8773450617887969 	101274.8325872353
-0.7995495495495494 	299.9583537829262 	0.8796506140426812 	101275.7750219955
-0.7970470470470474 	299.9599082106105 	0.8841428787797372 	101277.6115050594
-0.7945445445445446 	299.9621872184946 	0.8907314067170333 	101280.3048053336
-0.7920420420420423 	299.9651483790288 	0.8992914880013486 	101283.8042936697
-0.7895395395395397 	299.9687366907891 	0.9096642430314574 	101288.0451137172
-0.7870370370370371 	299.9728860461602 	0.921659241610266 	101292.9492661786
-0.7845345345345348 	299.9775219548974 	0.9350603244960416 	101298.428545968
-0.7820320320320323 	299.98256155227 	0.9496279297887678 	101304.3853728184
-0.7795295295295296 	299.9879142359738 	0.9650996875525366 	101310.7124164081
-0.7770270270270272 	299.9934830332697 	0.9811965749681981 	101317.2952598364
-0.7745245245245247 	299.9991687899995 	0.9976317786255874 	101324.0167777396
-0.7720220220220222 	300.0048711713155 	1.014113694885654 	101330.758137257
-0.7695195195195199 	300.0104873764321 	1.030346323347169 	101337.398083334
-0.767017017017017 	300.0159158784832 	1.046036671526022 	101343.8162785887
-0.7645145145145147 	300.0210599826358 	1.060905321070242 	101349.8985958127
-0.7620120120120122 	300.0258290289231 	1.074688652791937 	101355.5377163902
-0.7595095095095097 	300.0301364337082 	1.087136466697142 	101360.6310605088
-0.7570070070070072 	300.033901763929 	1.098018507619971 	101365.0837219732
-0.7545045045045048 	300.0370566797992 	1.107136452958724 	101368.8145954988
-0.7520020020020022 	300.0395446966674 	1.114325333003225 	101371.7568942665
-0.7494994994994997 	300.0413178437119 	1.119446784317301 	101373.8539044918
-0.7469969969969972 	300.0423380853954 	1.122392941969426 	101375.060477627
-0.7444944944944945 	300.0425837354668 	1.123100167288659 	101375.3505958799
-0.7419919919919924 	300.0420487104819 	1.12155077531529 	101374.7177411518
-0.7394894894894897 	300.0407389812095 	1.117763025568121 	101373.1693647538
-0.7369869869869872 	300.0386727901811 	1.111788955965387 	101370.7262186712
-0.7344844844844846 	300.0358831159419 	1.103726132698643 	101367.4274294982
-0.7319819819819822 	300.03242287214 	1.093724949832672 	101363.3355219771
-0.7294794794794797 	300.0283575418089 	1.081972768906115 	101358.5284197653
-0.7269769769769773 	300.0237579484764 	1.068675882106232 	101353.0896958228
-0.7244744744744747 	300.0187037320379 	1.054068469549624 	101347.1135189594
-0.721971971971972 	300.0132919293219 	1.038430793504432 	101340.7150329216
-0.7194694694694695 	300.0076335418718 	1.022077239499491 	101334.0250691354
-0.7169669669669674 	300.0018370320747 	1.005320911301119 	101327.1722275983
-0.7144644644644647 	299.9960045634969 	0.9884623252197411 	101320.2772436699
-0.711961961961962 	299.9902431690937 	0.9718138407268939 	101313.466449706
-0.7094594594594597 	299.9846705033036 	0.9557115191164154 	101306.8792379565
-0.7069569569569573 	299.9794015258442 	0.9404805804324511 	101300.6511606498
-0.7044544544544545 	299.9745296841136 	0.9263936694300833 	101294.8927425087
-0.7019519519519523 	299.9701311127408 	0.9136794377052984 	101289.6940109591
-0.6994494494494495 	299.9662842729542 	0.9025662345550776 	101285.1474074823
-0.6969469469469471 	299.9630728993382 	0.8932882661407346 	101281.3520050561
-0.6944444444444446 	299.9605642105325 	0.8860325199601142 	101278.3871377108
-0.6919419419419421 	299.9587898290678 	0.880895633331136 	101276.2900989654
-0.6894394394394396 	299.9577585942465 	0.8779148135201259 	101275.0713730251
-0.6869369369369374 	299.957485041362 	0.8771344753438985 	101274.7483439291
-0.6844344344344344 	299.9579940233056 	0.8786133158339193 	101275.3500117065
-0.6819319319319321 	299.9592893684783 	0.882350539082863 	101276.8803789051
-0.6794294294294296 	299.9613274005046 	0.8882298400390888 	101279.2886468413
-0.6769269269269272 	299.9640392360766 	0.8960676796389598 	101282.4934787987
-0.6744244244244245 	299.9673708239005 	0.9057107786631535 	101286.4308816103
-0.6719219219219222 	299.9712920585487 	0.9170572174562032 	101291.0652644024
-0.6694194194194195 	299.9757598966992 	0.9299676066248714 	101296.3459376229
-0.6669169169169172 	299.9806811682174 	0.944176646981073 	101302.1627276103
-0.6644144144144146 	299.9859253823661 	0.9593273988922766 	101308.3614594679
-0.661911911911912 	299.991378538583 	0.9751022966905708 	101314.8075750812
-0.6594094094094097 	299.9969747134147 	0.9912976000449939 	101321.4229436311
-0.656906906906907 	300.0026640068476 	1.00774624189257 	101328.1488107329
-0.6544044044044046 	300.0083545126016 	1.024175829855032 	101334.876402234
-0.6519019019019021 	300.0138974546483 	1.040175968043787 	101341.4298067011
-0.6493993993993996 	300.0191403007824 	1.055330791162902 	101347.6288291032
-0.6468968968968971 	300.0239929108017 	1.069380381691108 	101353.3665587925
-0.6443943943943946 	300.0284311719375 	1.082230322695215 	101358.6146901936
-0.6418918918918921 	300.0324326400357 	1.09378962370536 	101363.3464186071
-0.6393893893893897 	300.0359105310632 	1.103810129482602 	101367.4591754549
-0.6368868868868871 	300.0387224895952 	1.111910490855744 	101370.7846235839
-0.6343843843843846 	300.040750843691 	1.117777540246803 	101373.1833601131
-0.6318818818818821 	300.0419744955474 	1.121346564210302 	101374.6305362259
-0.6293793793793795 	300.0424584835422 	1.122771591540802 	101375.2028155214
-0.6268768768768773 	300.0422656125807 	1.122202674374001 	101374.9741918513
-0.6243743743743745 	300.0413750508536 	1.119587431994694 	101373.9212622305
-0.6218718718718721 	300.0396972051604 	1.114699484419088 	101371.9373775032
-0.6193693693693696 	300.037164066404 	1.107377257507112 	101368.9420708437
-0.6168668668668671 	300.0338224286557 	1.097758477869275 	101364.9906164825
-0.6143643643643645 	300.0298390872705 	1.086290932396929 	101360.2802936789
-0.6118618618618621 	300.025407894978 	1.073494119889529 	101355.0406592873
-0.6093593593593596 	300.0206389529998 	1.059673717088214 	101349.4017516953
-0.6068568568568571 	300.0155248504113 	1.044837013334958 	101343.3550226259
-0.6043543543543546 	300.0100158740018 	1.02888601673492 	101336.8417605114
-0.6018518518518521 	300.0041410130857 	1.011929724382603 	101329.8960763532
-0.5993493493493496 	299.9980741773277 	0.9944559679673677 	101322.7238950457
-0.5968468468468471 	299.9920907663198 	0.9772153661708058 	101315.6506089318
-0.5943443443443446 	299.9864433684373 	0.9608978750440214 	101308.9748224799
-0.591841841841842 	299.9812507687422 	0.9458412350361647 	101302.8370523759
-0.5893393393393397 	299.9764807919501 	0.9319844415198928 	101297.1988797355
-0.5868368368368371 	299.9720371325836 	0.9190983536003891 	101291.9467570267
-0.5843343343343346 	299.9678901514788 	0.9071270775072837 	101287.0454451078
-0.5818318318318321 	299.9641565781249 	0.8963999553391513 	101282.6327800401
-0.5793293293293297 	299.9610755156957 	0.8875685832635103 	101278.991517807
-0.5768268268268271 	299.9588973479999 	0.8813092189733303 	101276.4171926099
-0.5743243243243245 	299.957754066085 	0.877979660712724 	101275.0660262325
-0.5718218218218221 	299.9575934988559 	0.8774431816355106 	101274.8766759179
-0.5693193193193196 	299.9582174472465 	0.879164943978223 	101275.6138587866
-0.5668168168168171 	299.9593929983423 	0.8825191947089098 	101277.0027714182
-0.5643143143143147 	299.9609814193997 	0.887131032026488 	101278.879829945
-0.5618118118118121 	299.9630074500077 	0.8930617934764971 	101281.2741308933
-0.5593093093093094 	299.9656317737131 	0.9007391538473806 	101284.3756698168
-0.5568068068068072 	299.9690490297505 	0.910680265026946 	101288.4142636447
-0.5543043043043046 	299.973363462329 	0.9231560718801917 	101293.5134586088
-0.551801801801802 	299.9785055719298 	0.9379625776604675 	101299.5911531271
-0.5492992992992995 	299.9842263027423 	0.9544051252524004 	101306.353015692
-0.5467967967967969 	299.9901700377199 	0.9714972848403115 	101313.378997242
-0.5442942942942947 	299.9959914379501 	0.9882772648556323 	101320.2605733055
-0.5417917917917919 	300.0014607692395 	1.004100150420294 	101326.726348854
-0.5392892892892895 	300.0065189575711 	1.018789669601146 	101332.7063882677
-0.536786786786787 	300.011263700111 	1.032602251770338 	101338.3159596761
-0.5342842842842846 	300.0158778463249 	1.046032159379051 	101343.7714558613
-0.531781781781782 	300.0205324371853 	1.059542302977921 	101349.2748561055
-0.5292792792792794 	300.0252988768294 	1.073322082697898 	101354.9107552817
-0.526776776776777 	300.0301007713668 	1.087150942400898 	101360.588911403
-0.5242742742742745 	300.0347157235208 	1.100400765332994 	101366.0461228861
-0.521771771771772 	300.0388203909514 	1.112161595017513 	101370.9002454332
-0.5192692692692695 	300.0420630295239 	1.121441636123054 	101374.735053464
-0.516766766766767 	300.0441390198564 	1.127381096464702 	101377.1902413963
-0.5142642642642645 	300.0448530446021 	1.129425396574461 	101378.0343335466
-0.511761761761762 	300.0441516991035 	1.127421111381025 	101377.2039987112
-0.5092592592592596 	300.0421252158939 	1.121631613342681 	101374.8086540156
-0.506756756756757 	300.0389964809183 	1.112676545258017 	101371.1091481706
-0.5042542542542544 	300.0350654487804 	1.101407745400868 	101366.4605523186
-0.5017517517517521 	300.0306625249856 	1.088767262404359 	101361.2540475291
-0.4992492492492494 	300.026104884034 	1.075661662350343 	101355.864763455
-0.496746746746747 	300.0216627343135 	1.062866945183815 	101350.6122215703
-0.4942442442442445 	300.0175405859683 	1.050973793599224 	101345.7382178649
-0.4917417417417421 	300.0138721639921 	1.04037142678464 	101341.400825697
-0.4892392392392395 	300.0107254174093 	1.031260757627602 	101337.6803368979
-0.486736736736737 	300.0081138655328 	1.023686044537813 	101334.5926905336
-0.4842342342342345 	300.0060108255016 	1.017575125023299 	101332.1063024426
-0.481731731731732 	300.0043637448439 	1.012780266206271 	101330.1590132898
-0.4792292292292296 	300.0031067630862 	1.009114202484885 	101328.6729401275
-0.4767267267267268 	300.0021705248197 	1.006378470521353 	101327.5660756452
-0.4742242242242246 	300.0014889984989 	1.00438325299143 	101326.7603473491
-0.471721721721722 	300.0010035604338 	1.0029594016809 	101326.1864444298
-0.4692192192192195 	300.0006648789731 	1.001964117228057 	101325.7860432982
-0.4667167167167169 	300.0004332173128 	1.001282036405271 	101325.512164984
-0.4642142142142145 	300.0002777367426 	1.000823383186281 	101325.3283504629
-0.461711711711712 	300.0001752718009 	1.000520545403629 	101325.2072128356
-0.4592092092092094 	300.0001089223537 	1.000324074432984 	101325.1287721747
-0.456706706706707 	300.0000666826569 	1.000198757871666 	101325.0788348247
-0.4542042042042045 	300.0000402303029 	1.000120130013303 	101325.0475619342
-0.451701701701702 	300.0000239268226 	1.000071576716451 	101325.0282873357
-0.4491991991991995 	300.0000140328238 	1.000042055473477 	101325.0165902715
-0.4466966966966969 	300.000008118274 	1.000024374405144 	101325.0095978579
-0.4441941941941945 	300.0000046341238 	1.000013938941292 	101325.0054787103
-0.441691691691692 	300.0000026107496 	1.000007867329378 	101325.0030866199
-0.4391891891891895 	300.000001452051 	1.00000438367471 	101325.0017167245
-0.436686686686687 	300.0000007974589 	1.000002411971622 	101325.0009428385
-0.4341841841841846 	300.0000004325744 	1.000001310759453 	101325.0005114406
-0.431681681681682 	300.000000231788 	1.000000703715984 	101325.0002740758
-0.4291791791791794 	300.0000001227062 	1.00000037332881 	101325.0001451293
-0.426676676676677 	300.0000000641649 	1.000000195743728 	101325.0000759515
-0.4241741741741744 	300.0000000331753 	1.000000101455055 	101325.0000392907
-0.421671671671672 	300.0000000170004 	1.000000051993818 	101325.0000200949
-0.4191691691691694 	300.0000000086333 	1.000000026351562 	101325.0000101622
-0.4166666666666669 	300.0000000043522 	1.000000013210855 	101325.0000050812
-0.4141641641641645 	300.0000000021017 	1.000000006552615 	101325.0000025111
-0.411661661661662 	300.0000000010327 	1.000000003217593 	101325.0000012261
-0.4091591591591594 	300.000000000498 	1.000000001566721 	101325.0000005905
-0.406656656656657 	300.0000000001839 	1.000000000757189 	101325.0000002793
-0.4041541541541545 	300.0000000001 	1.000000000363742 	101325.0000001287
-0.401651651651652 	299.999999999999 	1.000000000173943 	101325.0000000559
-0.3991491491491494 	300.0000000000043 	1.000000000081603 	101325.0000000213
-0.396646646646647 	299.9999999999715 	1.000000000050376 	101325.0000000052
-0.3941441441441444 	299.9999999999941 	1.000000000012689 	101324.9999999975
-0.3916416416416419 	299.9999999999579 	1.00000000000372 	101324.9999999938
-0.3891391391391395 	299.9999999999633 	1.000000000005883 	101324.9999999921
-0.3866366366366368 	299.9999999999798 	1.000000000005576 	101324.9999999917
-0.3841341341341344 	300.0000000000005 	1.000000000004657 	101324.9999999923
-0.381631631631632 	299.99999999995 	1.000000000003636 	101324.9999999924
-0.3791291291291294 	299.9999999999724 	1.000000000002623 	101324.9999999918
-0.3766266266266269 	299.999999999993 	1.000000000002723 	101324.9999999912
-0.3741241241241244 	300.0000000000159 	1.0000000000026 	101324.9999999909
-0.371621621621622 	300.0000000000098 	1.000000000001711 	101324.9999999909
-0.3691191191191194 	300.0000000000193 	1.000000000014863 	101324.9999999909
-0.366616616616617 	300.0000000000191 	0.999999999998598 	101324.9999999908
-0.3641141141141143 	299.9999999999611 	0.9999999999998018 	101324.9999999905
-0.3616116116116119 	299.999999999957 	1.000000000004633 	101324.9999999908
-0.3591091091091095 	299.999999999986 	1.000000000004654 	101324.9999999915
-0.356606606606607 	299.9999999999765 	1.000000000003449 	101324.9999999915
-0.3541041041041044 	299.9999999999938 	1.00000000000321 	101324.9999999912
-0.3516016016016019 	300.0000000000159 	1.000000000003294 	101324.9999999914
-0.3490990990990994 	300.0000000000122 	1.000000000002975 	101324.9999999907
-0.346596596596597 	300.0000000000368 	1.000000000008628 	101324.9999999905
-0.3440940940940944 	300.0000000000412 	0.9999999999987864 	101324.9999999907
-0.3415915915915919 	300.0000000000329 	0.9999999999990039 	101324.9999999907
-0.3390890890890895 	299.9999999999854 	1.000000000002252 	101324.9999999911
-0.3365865865865869 	300.0000000000065 	1.000000000003005 	101324.9999999914
-0.3340840840840844 	299.9999999999984 	1.000000000002632 	101324.9999999914
-0.3315815815815819 	300.0000000000206 	1.000000000002571 	101324.9999999916
-0.3290790790790794 	300.0000000000251 	1.000000000002906 	101324.9999999912
-0.3265765765765769 	299.9999999999515 	1.000000000002895 	101324.9999999908
-0.3240740740740744 	299.9999999999872 	1.000000000002677 	101324.9999999908
-0.3215715715715718 	299.999999999997 	1.000000000002005 	101324.9999999905
-0.3190690690690695 	299.9999999999444 	1.000000000002433 	101324.9999999906
-0.3165665665665668 	299.9999999999861 	1.000000000002629 	101324.9999999907
-0.3140640640640644 	299.9999999999986 	1.000000000002387 	101324.9999999907
-0.311561561561562 	299.9999999999462 	1.000000000002499 	101324.9999999907
-0.3090590590590593 	299.9999999999884 	1.000000000001007 	101324.9999999908
-0.3065565565565568 	299.9999999999974 	1.000000000013018 	101324.9999999903
-0.3040540540540545 	299.9999999999966 	0.9999999999945657 	101324.9999999899
-0.3015515515515518 	300.000000000013 	0.9999999999970722 	101324.9999999903
-0.2990490490490494 	299.9999999999576 	1.0000000000046 	101324.9999999904
-0.2965465465465469 	299.9999999999822 	1.000000000006022 	101324.9999999906
-0.2940440440440444 	300.000000000007 	1.000000000005514 	101324.9999999907
-0.2915415415415418 	300.000000000014 	1.000000000005912 	101324.9999999906
-0.2890390390390395 	300.0000000000163 	1.0000000000051 	101324.9999999909
-0.2865365365365368 	299.9999999999856 	1.000000000003683 	101324.999999991
-0.2840340340340343 	299.9999999999895 	1.000000000009028 	101324.9999999907
-0.2815315315315318 	299.999999999966 	0.999999999999447 	101324.9999999911
-0.2790290290290295 	299.9999999999467 	1.00000000000005 	101324.9999999908
-0.2765265265265269 	299.9999999999907 	1.000000000003006 	101324.9999999913
-0.2740240240240244 	300.000000000028 	1.000000000003775 	101324.9999999908
-0.2715215215215219 	300.0000000000315 	1.000000000003824 	101324.9999999907
-0.2690190190190194 	299.9999999999656 	1.000000000003382 	101324.9999999901
-0.2665165165165169 	299.9999999999789 	1.000000000002663 	101324.9999999898
-0.2640140140140144 	299.9999999999661 	1.00000000000179 	101324.9999999902
-0.2615115115115119 	299.9999999999842 	1.000000000007502 	101324.9999999901
-0.2590090090090094 	299.9999999999318 	0.9999999999978035 	101324.9999999899
-0.2565065065065068 	299.9999999999817 	0.9999999999986626 	101324.9999999903
-0.2540040040040044 	299.9999999999999 	1.000000000001027 	101324.9999999905
-0.2515015015015019 	300.0000000000342 	1.000000000001673 	101324.9999999905
-0.2489989989989994 	300.0000000000487 	1.000000000003088 	101324.9999999901
-0.2464964964964968 	300.0000000000073 	1.000000000003507 	101324.9999999897
-0.2439939939939944 	299.9999999999979 	1.000000000011182 	101324.99999999
-0.2414914914914919 	299.9999999999679 	1.00000000000179 	101324.9999999904
-0.2389889889889893 	299.9999999999799 	1.000000000002585 	101324.999999991
-0.2364864864864869 	300.0000000000165 	1.000000000004652 	101324.9999999911
-0.2339839839839843 	299.99999999996 	1.000000000011068 	101324.999999991
-0.2314814814814819 	299.9999999999682 	1.000000000000081 	101324.9999999907
-0.2289789789789792 	299.9999999999258 	1.000000000000245 	101324.9999999903
-0.2264764764764769 	299.9999999999279 	1.000000000002957 	101324.9999999905
-0.2239739739739743 	299.9999999999484 	1.000000000002475 	101324.9999999905
-0.2214714714714718 	299.9999999999309 	1.000000000003545 	101324.9999999907
-0.2189689689689693 	299.9999999999426 	1.000000000004164 	101324.9999999907
-0.2164664664664669 	299.9999999999679 	1.000000000011725 	101324.9999999905
-0.2139639639639643 	299.9999999999298 	1.000000000001647 	101324.9999999909
-0.2114614614614618 	299.9999999999473 	1.000000000002224 	101324.9999999914
-0.2089589589589593 	299.9999999999953 	1.000000000003546 	101324.9999999914
-0.2064564564564568 	299.9999999999989 	1.000000000002823 	101324.9999999915
-0.2039539539539543 	299.9999999999214 	1.00000000000227 	101324.9999999913
-0.2014514514514518 	299.9999999999245 	1.00000000000142 	101324.9999999912
-0.1989489489489494 	299.9999999999553 	1.00000000000893 	101324.9999999911
-0.1964464464464468 	299.9999999999977 	1.000000000000024 	101324.9999999908
-0.1939439439439443 	299.9999999999984 	1.000000000001959 	101324.9999999908
-0.1914414414414418 	299.999999999943 	1.000000000004959 	101324.9999999904
-0.1889389389389393 	299.9999999999699 	1.00000000000454 	101324.9999999905
-0.1864364364364368 	300.0000000000289 	1.000000000003239 	101324.999999991
-0.1839339339339343 	299.9999999999894 	1.000000000003605 	101324.9999999912
-0.1814314314314318 	299.9999999999853 	1.000000000004014 	101324.9999999912
-0.1789289289289293 	299.9999999999167 	1.000000000003899 	101324.9999999914
-0.1764264264264268 	299.9999999999429 	1.000000000003789 	101324.999999991
-0.1739239239239243 	299.9999999999071 	1.000000000004348 	101324.9999999905
-0.1714214214214218 	299.9999999999615 	1.000000000004412 	101324.9999999901
-0.1689189189189193 	299.9999999999421 	1.000000000003377 	101324.9999999903
-0.1664164164164168 	299.9999999999849 	1.00000000000206 	101324.9999999907
-0.1639139139139143 	300.0000000000016 	1.000000000002197 	101324.9999999905
-0.1614114114114118 	300.0000000000229 	1.000000000001183 	101324.9999999906
-0.1589089089089093 	300.0000000000177 	1.00000000001454 	101324.9999999904
-0.1564064064064068 	299.9999999999836 	0.9999999999932594 	101324.9999999906
-0.1539039039039043 	299.9999999999893 	1.000000000002815 	101324.9999999907
-0.1514014014014018 	300.0000000000123 	0.9999999999979342 	101324.9999999909
-0.1488988988988993 	300.0000000000007 	1.000000000006388 	101324.9999999908
-0.1463963963963968 	299.999999999996 	0.9999999999981448 	101324.9999999901
-0.1438938938938943 	299.9999999999599 	1.000000000000276 	101324.9999999901
-0.1413913913913918 	299.9999999999258 	1.000000000003902 	101324.999999991
-0.1388888888888893 	299.9999999999549 	1.000000000003643 	101324.9999999915
-0.1363863863863868 	299.9999999999221 	1.000000000003946 	101324.9999999916
-0.1338838838838843 	299.9999999998961 	1.000000000003759 	101324.9999999912
-0.1313813813813818 	299.9999999999635 	1.000000000003225 	101324.9999999912
-0.1288788788788793 	299.9999999999417 	1.000000000002806 	101324.9999999907
-0.1263763763763768 	299.9999999999651 	1.000000000003541 	101324.9999999909
-0.1238738738738743 	299.9999999999411 	1.00000000000385 	101324.9999999911
-0.1213713713713717 	299.999999999963 	1.000000000004085 	101324.9999999907
-0.1188688688688693 	300.000000000012 	1.00000000000411 	101324.9999999906
-0.1163663663663668 	299.9999999999241 	1.0000000000023 	101324.9999999905
-0.1138638638638643 	299.999999999965 	1.00000000000821 	101324.9999999902
-0.1113613613613618 	299.9999999999833 	0.9999999999966059 	101324.99999999
-0.1088588588588592 	299.9999999999839 	1.00000000000619 	101324.99999999
-0.1063563563563568 	299.9999999999681 	0.9999999999990321 	101324.9999999905
-0.1038538538538543 	299.999999999975 	1.000000000000203 	101324.9999999906
-0.1013513513513517 	299.9999999999989 	1.000000000001921 	101324.9999999911
-0.09884884884884926 	299.9999999999768 	1.000000000002454 	101324.999999991
-0.09634634634634676 	299.9999999999185 	1.000000000002311 	101324.9999999903
-0.09384384384384425 	299.9999999998862 	1.000000000003077 	101324.9999999899
-0.09134134134134177 	299.9999999999848 	1.000000000004095 	101324.9999999902
-0.08883883883883925 	300.0000000000051 	1.000000000003743 	101324.9999999903
-0.08633633633633674 	299.9999999999517 	1.000000000002778 	101324.99999999
-0.08383383383383426 	299.9999999999864 	1.000000000002771 	101324.9999999901
-0.08133133133133173 	299.9999999999753 	1.00000000000249 	101324.9999999907
-0.07882882882882926 	299.9999999999119 	1.000000000003279 	101324.9999999909
-0.07632632632632676 	299.9999999999433 	1.00000000000383 	101324.9999999913
-0.07382382382382424 	299.9999999998983 	1.000000000002318 	101324.9999999912
-0.07132132132132173 	299.9999999999624 	1.000000000001571 	101324.9999999913
-0.06881881881881925 	299.9999999999503 	1.000000000001081 	101324.9999999915
-0.06631631631631671 	299.9999999998962 	1.000000000001322 	101324.9999999912
-0.06381381381381425 	299.9999999999312 	1.000000000001055 	101324.9999999906
-0.06131131131131173 	299.9999999999446 	1.000000000000864 	101324.9999999907
-0.05880880880880923 	299.9999999999457 	1.000000000000461 	101324.9999999906
-0.05630630630630672 	299.9999999999403 	1.000000000000508 	101324.9999999904
-0.05380380380380424 	300.0000000000168 	1.000000000001285 	101324.9999999905
-0.05130130130130173 	300.0000000000097 	1.000000000001882 	101324.9999999905
-0.04879879879879922 	299.9999999999215 	1.000000000001974 	101324.99999999
-0.04629629629629672 	299.9999999999135 	1.000000000001783 	101324.9999999903
-0.04379379379379422 	299.9999999999264 	1.000000000000924 	101324.9999999901
-0.04129129129129173 	299.999999999938 	0.9999999999998315 	101324.9999999903
-0.03878878878878922 	299.9999999999939 	1.000000000000087 	101324.9999999899
-0.03628628628628671 	299.9999999999801 	1.000000000000784 	101324.9999999893
-0.03378378378378422 	299.9999999999179 	1.000000000000477 	101324.9999999893
-0.03128128128128172 	299.9999999999355 	1.000000000000521 	101324.9999999897
-0.02877877877877922 	299.9999999999907 	1.000000000000292 	101324.9999999907
-0.0262762762762767 	299.9999999999108 	0.9999999999994623 	101324.9999999912
-0.02377377377377422 	299.9999999999629 	0.9999999999997699 	101324.9999999909
-0.0212712712712717 	299.9999999998973 	1.000000000000191 	101324.9999999906
-0.01876876876876921 	299.9999999999537 	0.9999999999998834 	101324.9999999905
-0.01626626626626671 	299.9999999999812 	0.9999999999992484 	101324.9999999907
-0.0137637637637642 	299.9999999999478 	0.9999999999982884 	101324.9999999906
-0.0112612612612617 	299.9999999999733 	0.9999999999979277 	101324.9999999909
-0.008758758758759198 	299.9999999999686 	0.999999999998768 	101324.999999991
-0.006256256256256697 	299.9999999999258 	0.9999999999993513 	101324.999999991
-0.003753753753754195 	299.9999999999277 	1.000000000000202 	101324.999999991
-0.001251251251251693 	299.9999999999268 	0.9999999999998421 	101324.9999999906
0.00125125125125081 	299.9999999999117 	0.9999999999994651 	101324.999999991
0.003753753753753312 	299.9999999999214 	0.9999999999996445 	101324.9999999907
0.006256256256255817 	299.9999999999121 	1.000000000000669 	101324.9999999905
0.008758758758758317 	299.9999999999259 	1.000000000002024 	101324.9999999904
0.01126126126126082 	299.9999999999615 	1.000000000002221 	101324.9999999901
0.01376376376376332 	299.9999999999403 	1.000000000002439 	101324.9999999903
0.01626626626626582 	299.9999999999741 	1.000000000001172 	101324.9999999906
0.01876876876876833 	299.9999999999736 	1.000000000001091 	101324.9999999909
0.02127127127127083 	299.9999999999238 	1.000000000001608 	101324.999999991
0.02377377377377332 	299.9999999999728 	1.000000000002485 	101324.9999999908
0.02627627627627583 	299.9999999999203 	1.000000000000899 	101324.9999999902
0.02877877877877833 	299.9999999999616 	0.9999999999993482 	101324.9999999901
0.03128128128128083 	299.9999999999609 	0.9999999999988129 	101324.9999999902
0.03378378378378333 	299.9999999999179 	0.9999999999986052 	101324.9999999901
0.03628628628628584 	299.9999999999402 	0.9999999999984909 	101324.9999999904
0.03878878878878834 	299.9999999999883 	0.9999999999991198 	101324.9999999912
0.04129129129129084 	299.9999999999397 	1.000000000000953 	101324.9999999904
0.04379379379379333 	299.99999999994 	1.000000000002037 	101324.9999999905
0.04629629629629585 	299.9999999999267 	1.000000000000778 	101324.9999999905
0.04879879879879834 	299.9999999999106 	0.9999999999993697 	101324.9999999899
0.05130130130130085 	299.9999999999861 	0.9999999999993513 	101324.9999999906
0.05380380380380335 	300.0000000000138 	0.9999999999989103 	101324.9999999911
0.05630630630630584 	299.9999999999854 	0.9999999999998145 	101324.9999999906
0.05880880880880836 	299.9999999999394 	1.000000000001396 	101324.9999999906
0.06131131131131085 	299.9999999999474 	1.000000000001906 	101324.9999999907
0.06381381381381336 	299.9999999999607 	1.000000000001333 	101324.9999999911
0.06631631631631586 	299.9999999999159 	0.999999999999437 	101324.9999999911
0.06881881881881835 	299.9999999999371 	0.999999999998912 	101324.999999991
0.07132132132132088 	299.9999999999733 	0.9999999999980098 	101324.9999999905
0.07382382382382337 	299.9999999999189 	0.9999999999983704 	101324.9999999899
0.07632632632632587 	299.9999999999451 	0.9999999999991906 	101324.999999989
0.07882882882882837 	299.9999999999393 	0.9999999999993771 	101324.9999999893
0.08133133133133086 	299.9999999999577 	0.999999999998673 	101324.99999999
0.08383383383383337 	299.9999999999764 	0.9999999999979187 	101324.9999999908
0.08633633633633589 	299.9999999999146 	0.9999999999966679 	101324.9999999906
0.08883883883883838 	299.9999999999807 	0.9999999999974426 	101324.9999999906
0.09134134134134086 	299.9999999999803 	0.9999999999976799 	101324.9999999915
0.09384384384384339 	299.9999999999137 	0.9999999999973738 	101324.9999999914
0.09634634634634588 	299.999999999944 	0.9999999999971967 	101324.999999991
0.09884884884884838 	299.9999999999636 	0.9999999999966105 	101324.9999999913
0.1013513513513509 	300.0000000000229 	0.9999999999964616 	101324.9999999909
0.1038538538538534 	299.9999999999836 	0.9999999999970256 	101324.9999999907
0.1063563563563559 	299.9999999999949 	0.9999999999975111 	101324.9999999899
0.1088588588588584 	300.0000000000206 	0.9999999999981956 	101324.9999999899
0.1113613613613609 	299.9999999999685 	0.9999999999976553 	101324.9999999904
0.1138638638638634 	299.9999999999308 	0.9999999999974373 	101324.9999999906
0.1163663663663659 	299.9999999999347 	0.9999999999970552 	101324.9999999908
0.1188688688688684 	299.9999999999494 	0.9999999999970844 	101324.9999999906
0.1213713713713709 	299.9999999999869 	0.999999999998105 	101324.9999999901
0.1238738738738734 	299.9999999999389 	0.9999999999987925 	101324.9999999899
0.1263763763763759 	299.999999999974 	0.9999999999990307 	101324.9999999895
0.1288788788788784 	299.9999999999807 	0.99999999999855 	101324.9999999896
0.1313813813813809 	299.9999999999808 	0.9999999999988318 	101324.9999999898
0.1338838838838834 	299.9999999999744 	0.9999999999979784 	101324.9999999896
0.1363863863863859 	300.0000000000057 	0.9999999999972679 	101324.99999999
0.1388888888888884 	300.0000000000304 	0.9999999999973217 	101324.9999999904
0.1413913913913909 	300.0000000000094 	0.999999999997581 	101324.9999999911
0.1438938938938934 	299.9999999999942 	0.9999999999965996 	101324.9999999909
0.1463963963963959 	299.9999999999613 	0.999999999995949 	101324.9999999907
0.1488988988988985 	299.9999999999117 	0.9999999999969759 	101324.9999999907
0.1514014014014009 	299.9999999999542 	0.9999999999980633 	101324.9999999906
0.1539039039039035 	299.9999999999528 	0.9999999999975026 	101324.9999999904
0.1564064064064059 	299.999999999934 	1.000000000002943 	101324.9999999902
0.1589089089089084 	299.9999999999567 	0.999999999992608 	101324.9999999903
0.1614114114114109 	299.9999999999548 	0.9999999999957794 	101324.9999999902
0.1639139139139134 	299.9999999999224 	0.9999999999993729 	101324.9999999902
0.166416416416416 	299.9999999999545 	0.9999999999991496 	101324.9999999897
0.1689189189189185 	300.0000000000276 	0.9999999999984061 	101324.9999999898
0.1714214214214209 	300.0000000000156 	0.9999999999975916 	101324.99999999
0.1739239239239235 	299.9999999999878 	0.9999999999980751 	101324.9999999896
0.1764264264264259 	299.999999999969 	0.9999999999984064 	101324.9999999892
0.1789289289289284 	300.0000000000065 	1.000000000004474 	101324.9999999889
0.181431431431431 	299.9999999999892 	0.9999999999940042 	101324.9999999896
0.1839339339339334 	299.9999999999857 	0.9999999999976403 	101324.9999999903
0.186436436436436 	299.9999999999449 	1.000000000000586 	101324.9999999904
0.1889389389389385 	299.9999999999729 	1.000000000000597 	101324.9999999899
0.191441441441441 	299.9999999999711 	1.000000000000539 	101324.9999999895
0.1939439439439434 	299.9999999999403 	0.9999999999991072 	101324.9999999897
0.196446446446446 	299.9999999999319 	1.00000000000321 	101324.9999999899
0.1989489489489485 	299.9999999999611 	0.9999999999916287 	101324.9999999908
0.2014514514514509 	299.9999999999879 	0.9999999999934555 	101324.9999999908
0.2039539539539535 	299.9999999999843 	0.9999999999959226 	101324.9999999908
0.2064564564564559 	299.9999999999502 	0.9999999999954801 	101324.99999999
0.2089589589589585 	299.9999999999695 	0.9999999999948108 	101324.9999999895
0.211461461461461 	299.9999999999453 	0.9999999999936776 	101324.9999999899
0.2139639639639635 	299.9999999999707 	0.9999999999943675 	101324.99999999
0.2164664664664659 	300.000000000015 	0.9999999999949463 	101324.9999999898
0.2189689689689684 	300.0000000000162 	1.000000000000209 	101324.9999999905
0.221471471471471 	300.0000000000099 	0.9999999999913691 	101324.9999999901
0.2239739739739735 	299.9999999999658 	0.9999999999945689 	101324.99999999
0.226476476476476 	299.999999999984 	0.9999999999977423 	101324.9999999895
0.2289789789789785 	299.9999999999993 	0.999999999997314 	101324.9999999899
0.231481481481481 	299.9999999999852 	0.9999999999962801 	101324.9999999897
0.2339839839839835 	299.9999999999691 	0.9999999999965345 	101324.9999999899
0.236486486486486 	300.0000000000048 	0.9999999999964062 	101324.99999999
0.2389889889889885 	299.9999999999986 	0.9999999999957851 	101324.9999999902
0.241491491491491 	299.9999999999374 	1.000000000001213 	101324.9999999898
0.2439939939939935 	299.99999999997 	0.9999999999916961 	101324.9999999898
0.246496496496496 	299.9999999999865 	0.999999999994665 	101324.9999999893
0.2489989989989985 	300.0000000000377 	0.9999999999978395 	101324.9999999895
0.251501501501501 	300.0000000000341 	0.9999999999988353 	101324.9999999899
0.2540040040040035 	300.0000000000047 	0.9999999999978754 	101324.9999999898
0.256506506506506 	300.0000000000237 	0.9999999999968965 	101324.9999999902
0.2590090090090086 	299.9999999999399 	1.000000000001863 	101324.9999999902
0.261511511511511 	299.9999999999822 	0.9999999999921804 	101324.9999999904
0.2640140140140135 	299.9999999999769 	0.9999999999951961 	101324.9999999898
0.2665165165165161 	299.9999999999372 	0.99999999999724 	101324.9999999897
0.2690190190190185 	299.9999999999885 	0.9999999999966139 	101324.9999999901
0.271521521521521 	300.0000000000255 	0.9999999999955304 	101324.9999999901
0.2740240240240235 	300.0000000000325 	0.9999999999958505 	101324.9999999894
0.276526526526526 	300.0000000000246 	0.999999999996418 	101324.999999989
0.2790290290290286 	299.9999999999629 	0.9999999999962743 	101324.9999999887
0.281531531531531 	299.999999999933 	1.000000000001073 	101324.9999999889
0.2840340340340335 	299.9999999999648 	0.9999999999907435 	101324.9999999897
0.2865365365365361 	299.9999999999717 	0.999999999993581 	101324.9999999901
0.2890390390390385 	300.0000000000049 	0.9999999999965014 	101324.9999999904
0.291541541541541 	300.0000000000175 	0.9999999999968934 	101324.9999999903
0.2940440440440436 	300.0000000000147 	0.9999999999972291 	101324.9999999902
0.296546546546546 	300.0000000000142 	0.9999999999981255 	101324.9999999896
0.2990490490490486 	299.9999999999675 	0.9999999999978747 	101324.99999999
0.3015515515515511 	300.0000000000041 	0.9999999999986551 	101324.99999999
0.3040540540540535 	300.0000000000026 	1.000000000009599 	101324.9999999896
0.3065565565565562 	300.0000000000074 	0.9999999999900121 	101324.9999999894
0.3090590590590585 	300.0000000000011 	0.9999999999951138 	101324.9999999899
0.3115615615615611 	299.9999999999559 	1.000000000000197 	101324.9999999898
0.3140640640640635 	300.0000000000031 	0.9999999999993141 	101324.9999999898
0.316566566566566 	299.9999999999953 	0.9999999999989805 	101324.9999999899
0.3190690690690687 	299.9999999999449 	0.9999999999983423 	101324.9999999901
0.3215715715715711 	299.9999999999896 	0.9999999999977827 	101324.9999999899
0.3240740740740735 	299.999999999995 	0.9999999999986661 	101324.9999999902
0.326576576576576 	299.9999999999387 	0.9999999999989528 	101324.9999999899
0.3290790790790786 	300.0000000000024 	0.99999999999874 	101324.9999999902
0.3315815815815811 	300.000000000023 	0.9999999999983915 	101324.99999999
0.3340840840840836 	300.0000000000095 	0.9999999999983263 	101324.9999999897
0.3365865865865861 	300.0000000000333 	0.999999999998374 	101324.9999999899
0.3390890890890886 	300.0000000000501 	0.9999999999996649 	101324.9999999901
0.3415915915915911 	300.0000000000227 	0.9999999999998663 	101324.9999999903
0.3440940940940935 	299.9999999999446 	1.000000000003852 	101324.9999999906
0.3465965965965962 	299.999999999998 	0.999999999994291 	101324.9999999903
0.3490990990990985 	300.0000000000122 	0.999999999997217 	101324.9999999901
0.3516016016016011 	300.00000000002 	0.9999999999997758 	101324.9999999903
0.3541041041041035 	300.0000000000068 	1.000000000000018 	101324.99999999
0.3566066066066061 	299.9999999999371 	1.000000000000615 	101324.9999999897
0.3591091091091085 	299.9999999999461 	1.000000000002047 	101324.9999999899
0.3616116116116112 	299.9999999999654 	1.000000000001768 	101324.9999999904
0.3641141141141137 	299.9999999999424 	1.000000000001354 	101324.9999999903
0.3666166166166161 	299.9999999999036 	1.000000000009891 	101324.9999999899
0.3691191191191185 	299.9999999999816 	0.9999999999911376 	101324.9999999902
0.371621621621621 	299.9999999999991 	0.9999999999962609 	101324.9999999901
0.3741241241241237 	300.0000000000248 	1.000000000001437 	101324.9999999902
0.3766266266266261 	300.0000000000148 	1.000000000001184 	101324.9999999906
0.3791291291291286 	299.9999999999947 	1.000000000001051 	101324.9999999902
0.3816316316316311 	299.9999999999529 	1.000000000001487 	101324.9999999901
0.3841341341341336 	299.999999999981 	1.000000000000928 	101324.9999999898
0.3866366366366362 	299.9999999999771 	1.000000000000185 	101324.9999999901
0.3891391391391387 	299.9999999999596 	1.000000000000096 	101324.9999999903
0.391641641641641 	299.999999999993 	0.9999999999997757 	101324.9999999905
0.3941441441441436 	300.0000000000002 	0.9999999999994124 	101324.9999999903
0.3966466466466462 	299.9999999999982 	0.9999999999995766 	101324.9999999903
0.3991491491491486 	299.9999999999791 	1.000000000000361 	101324.9999999904
0.4016516516516512 	299.9999999999421 	1.000000000000673 	101324.9999999901
0.4041541541541536 	299.9999999999636 	1.000000000001054 	101324.99999999
0.4066566566566561 	299.9999999999644 	1.000000000004105 	101324.9999999897
0.4091591591591587 	300.0000000000055 	0.9999999999938384 	101324.9999999897
0.4116616616616612 	300.0000000000227 	0.9999999999967124 	101324.9999999899
0.4141641641641635 	300.0000000000397 	1.000000000000595 	101324.9999999903
0.4166666666666662 	300.000000000023 	1.000000000000855 	101324.9999999903
0.4191691691691687 	299.9999999999476 	0.9999999999992657 	101324.9999999904
0.421671671671671 	299.9999999999799 	0.9999999999988567 	101324.9999999903
0.4241741741741737 	299.9999999999661 	0.9999999999989129 	101324.9999999899
0.4266766766766761 	299.9999999999376 	1.000000000000588 	101324.9999999899
0.4291791791791785 	299.999999999979 	1.000000000009597 	101324.9999999898
0.4316816816816812 	299.9999999999823 	0.9999999999918883 	101324.9999999896
0.4341841841841836 	299.9999999999994 	0.9999999999974064 	101324.9999999896
0.4366866866866862 	299.9999999999657 	1.000000000002742 	101324.9999999897
0.4391891891891885 	299.9999999999991 	1.00000000000257 	101324.9999999898
0.4416916916916913 	300.0000000000076 	1.00000000000224 	101324.9999999901
0.4441941941941936 	299.9999999999901 	1.000000000001448 	101324.9999999899
0.4466966966966961 	299.9999999999227 	1.000000000000117 	101324.9999999899
0.4491991991991987 	299.999999999967 	1.000000000000389 	101324.9999999903
0.4517017017017012 	299.9999999999596 	1.000000000001285 	101324.9999999907
0.4542042042042035 	299.9999999999914 	1.00000000000132 	101324.9999999905
0.4567067067067062 	300.0000000000048 	1.000000000000485 	101324.9999999906
0.4592092092092087 	299.9999999999287 	0.9999999999994016 	101324.9999999908
0.4617117117117112 	299.9999999999708 	0.9999999999991178 	101324.9999999906
0.4642142142142137 	299.9999999999489 	0.9999999999990254 	101324.99999999
0.4667167167167162 	299.9999999999803 	0.9999999999985747 	101324.9999999897
0.4692192192192187 	299.9999999999498 	0.9999999999978113 	101324.9999999897
0.4717217217217212 	299.999999999993 	0.9999999999979159 	101324.9999999898
0.4742242242242236 	299.9999999999637 	0.9999999999985651 	101324.9999999901
0.4767267267267262 	299.9999999999472 	0.9999999999988316 	101324.9999999905
0.4792292292292287 	299.9999999999974 	0.9999999999991825 	101324.9999999907
0.4817317317317312 	300.000000000021 	0.9999999999999509 	101324.9999999903
0.4842342342342336 	300.0000000000131 	1.000000000000116 	101324.99999999
0.4867367367367362 	299.9999999999914 	0.9999999999996612 	101324.9999999901
0.4892392392392387 	300.0000000000093 	0.9999999999989281 	101324.9999999904
0.4917417417417412 	300.0000000000384 	0.9999999999988295 	101324.9999999906
0.4942442442442437 	299.9999999999808 	0.9999999999996046 	101324.9999999903
0.4967467467467462 	299.9999999999301 	1.000000000002838 	101324.9999999901
0.4992492492492487 	299.9999999998925 	0.9999999999949656 	101324.9999999905
0.5017517517517511 	299.9999999999163 	0.9999999999988171 	101324.9999999909
0.5042542542542537 	299.9999999999742 	1.000000000001948 	101324.9999999909
0.5067567567567562 	299.9999999999698 	1.000000000001168 	101324.9999999906
0.5092592592592589 	299.9999999999538 	0.9999999999990634 	101324.99999999
0.5117617617617611 	299.9999999999774 	0.9999999999975033 	101324.9999999896
0.5142642642642637 	300.0000000000124 	0.9999999999962456 	101324.9999999892
0.5167667667667663 	299.9999999999993 	0.9999999999980912 	101324.9999999889
0.5192692692692688 	299.999999999932 	1.000000000005758 	101324.9999999887
0.5217717717717714 	299.9999999999508 	0.9999999999890626 	101324.9999999891
0.5242742742742736 	299.999999999951 	0.9999999999940564 	101324.9999999896
0.5267767767767763 	299.9999999999442 	0.9999999999986904 	101324.9999999901
0.5292792792792789 	299.9999999999441 	0.9999999999990157 	101324.9999999899
0.5317817817817813 	299.9999999999224 	0.9999999999999223 	101324.9999999896
0.5342842842842837 	299.9999999999688 	1.000000000000884 	101324.999999989
0.5367867867867864 	299.9999999999757 	1.000000000000909 	101324.9999999892
0.5392892892892888 	299.9999999999378 	0.9999999999999625 	101324.9999999895
0.5417917917917912 	299.999999999953 	0.9999999999985956 	101324.9999999896
0.5442942942942938 	299.9999999999465 	0.9999999999972586 	101324.9999999893
0.5467967967967964 	299.9999999999625 	0.9999999999970733 	101324.9999999891
0.5492992992992988 	299.9999999999584 	0.9999999999973823 	101324.9999999892
0.5518018018018012 	299.9999999999504 	0.9999999999974465 	101324.9999999895
0.5543043043043039 	299.9999999999841 	0.9999999999989344 	101324.9999999891
0.5568068068068063 	299.9999999999787 	1.000000000001896 	101324.9999999891
0.5593093093093087 	299.999999999939 	1.000000000006011 	101324.9999999891
0.5618118118118114 	299.9999999999326 	0.9999999999974217 	101324.9999999889
0.5643143143143137 	299.9999999999152 	0.9999999999988168 	101324.9999999892
0.5668168168168163 	299.9999999999483 	1.000000000000558 	101324.9999999894
0.5693193193193188 	299.9999999999988 	1.000000000000822 	101324.9999999897
0.5718218218218213 	300.0000000000286 	1.000000000001656 	101324.9999999893
0.5743243243243239 	300.0000000000296 	1.000000000001406 	101324.999999989
0.5768268268268262 	300.0000000000142 	0.999999999999955 	101324.9999999886
0.5793293293293288 	299.9999999999694 	1.000000000002119 	101324.9999999884
0.5818318318318314 	299.999999999945 	1.000000000007806 	101324.9999999886
0.5843343343343338 	299.9999999999916 	0.999999999991359 	101324.999999989
0.5868368368368363 	299.9999999999825 	0.9999999999972162 	101324.9999999891
0.5893393393393387 	299.9999999999336 	1.000000000003416 	101324.9999999896
0.5918418418418413 	299.999999999951 	1.000000000003581 	101324.99999999
0.5943443443443439 	299.9999999999939 	1.000000000002473 	101324.9999999902
0.5968468468468463 	300.0000000000148 	1.000000000002339 	101324.9999999901
0.5993493493493487 	300.0000000000452 	1.000000000002498 	101324.9999999898
0.6018518518518514 	300.0000000000236 	1.00000000000251 	101324.9999999895
0.6043543543543537 	300.0000000000143 	1.000000000002117 	101324.9999999893
0.6068568568568564 	299.999999999999 	1.000000000001812 	101324.9999999895
0.6093593593593587 	299.9999999999367 	1.000000000002655 	101324.9999999895
0.6118618618618614 	299.9999999999237 	1.000000000003501 	101324.9999999896
0.6143643643643638 	299.9999999999935 	1.000000000003295 	101324.9999999898
0.6168668668668662 	299.9999999999959 	1.000000000002819 	101324.9999999892
0.6193693693693688 	299.999999999974 	1.000000000004066 	101324.9999999889
0.6218718718718714 	299.9999999999852 	1.000000000006873 	101324.9999999889
0.6243743743743737 	299.9999999999721 	0.9999999999995749 	101324.999999989
0.6268768768768762 	299.9999999999529 	1.000000000001871 	101324.9999999889
0.629379379379379 	299.9999999999731 	1.000000000003447 	101324.9999999892
0.6318818818818812 	299.9999999999868 	1.000000000003239 	101324.9999999886
0.6343843843843838 	300.0000000000181 	1.00000000000256 	101324.9999999881
0.6368868868868864 	300.0000000000048 	1.00000000000223 	101324.9999999883
0.6393893893893888 	299.9999999999538 	1.000000000001489 	101324.9999999887
0.6418918918918912 	299.9999999999744 	1.000000000003656 	101324.999999989
0.6443943943943939 	299.9999999999632 	1.000000000008626 	101324.9999999895
0.6468968968968963 	299.9999999999663 	0.99999999999348 	101324.9999999898
0.6493993993993988 	299.999999999967 	0.9999999999995945 	101324.9999999893
0.6519019019019012 	299.9999999999822 	1.000000000004146 	101324.9999999885
0.6544044044044038 	299.9999999999388 	1.000000000001952 	101324.9999999881
0.6569069069069065 	299.9999999999305 	0.9999999999998643 	101324.9999999882
0.6594094094094087 	299.9999999999537 	1.000000000000302 	101324.9999999888
0.6619119119119113 	299.9999999999688 	1.000000000001908 	101324.9999999893
0.664414414414414 	299.999999999992 	1.000000000003257 	101324.9999999893
0.6669169169169162 	299.9999999999995 	1.000000000003794 	101324.9999999887
0.6694194194194188 	299.9999999999813 	1.000000000003454 	101324.9999999884
0.6719219219219214 	299.999999999942 	1.000000000002743 	101324.9999999882
0.674424424424424 	299.9999999999613 	1.000000000002186 	101324.9999999879
0.6769269269269262 	299.999999999937 	1.000000000002272 	101324.9999999883
0.679429429429429 	299.9999999999994 	1.00000000000278 	101324.9999999892
0.6819319319319311 	300.0000000000148 	1.00000000000439 	101324.9999999893
0.6844344344344341 	300.0000000000214 	1.000000000007306 	101324.9999999891
0.686936936936936 	300.000000000021 	1.000000000000792 	101324.9999999887
0.6894394394394392 	300.0000000000194 	1.000000000003441 	101324.9999999886
0.6919419419419413 	300.0000000000062 	1.000000000004917 	101324.9999999888
0.694444444444444 	299.9999999999557 	1.000000000003703 	101324.9999999888
0.6969469469469463 	299.9999999999204 	1.000000000003555 	101324.9999999885
0.6994494494494489 	299.9999999999185 	1.000000000004508 	101324.9999999888
0.7019519519519515 	299.9999999999539 	1.000000000004578 	101324.9999999889
0.7044544544544538 	299.9999999999444 	1.000000000006714 	101324.9999999882
0.7069569569569564 	299.9999999999862 	1.000000000010199 	101324.9999999883
0.7094594594594589 	299.9999999999717 	0.999999999995494 	101324.9999999885
0.7119619619619615 	299.9999999999332 	1.00000000000136 	101324.9999999887
0.7144644644644638 	299.9999999999507 	1.000000000004818 	101324.9999999886
0.7169669669669665 	299.9999999999437 	1.000000000002985 	101324.9999999884
0.7194694694694688 	300.0000000000013 	1.000000000002434 	101324.9999999879
0.7219719719719715 	300.0000000000051 	1.000000000003632 	101324.9999999877
0.7244744744744737 	300.0000000000012 	1.000000000004615 	101324.999999988
0.7269769769769764 	299.9999999999997 	1.000000000008629 	101324.9999999884
0.7294794794794791 	299.9999999999938 	1.000000000012486 	101324.999999989
0.7319819819819813 	299.9999999999798 	0.9999999999977487 	101324.9999999892
0.7344844844844839 	299.9999999999256 	1.000000000002377 	101324.9999999891
0.7369869869869864 	299.9999999999291 	1.000000000005643 	101324.999999989
0.739489489489489 	299.9999999999485 	1.000000000004374 	101324.9999999888
0.7419919919919914 	299.9999999999458 	1.000000000003671 	101324.9999999884
0.7444944944944939 	299.9999999999546 	1.000000000005474 	101324.9999999886
0.7469969969969963 	299.999999999969 	1.000000000007619 	101324.9999999887
0.7494994994994989 	299.9999999999395 	1.000000000003837 	101324.9999999891
0.7520020020020015 	299.9999999999454 	1.000000000009742 	101324.9999999887
0.7545045045045039 	299.9999999999474 	0.9999999999968943 	101324.9999999883
0.7570070070070062 	299.9999999999413 	1.000000000001838 	101324.9999999885
0.7595095095095092 	299.9999999999475 	1.000000000006382 	101324.9999999885
0.7620120120120112 	299.999999999982 	1.000000000006347 	101324.9999999883
0.7645145145145138 	299.9999999999808 	1.000000000005372 	101324.9999999885
0.7670170170170165 	299.9999999999465 	1.000000000008799 	101324.9999999889
0.7695195195195191 	299.9999999999194 	1.0000000000113 	101324.9999999896
0.7720220220220213 	299.9999999999342 	0.9999999999962013 	101324.9999999895
0.7745245245245239 	299.9999999999252 	1.00000000000064 	101324.999999989
0.7770270270270263 	299.999999999926 	1.000000000003685 	101324.9999999882
0.779529529529529 	299.9999999999518 	1.00000000000311 	101324.9999999881
0.7820320320320313 	299.9999999999536 	1.000000000003578 	101324.9999999886
0.784534534534534 	299.999999999987 	1.000000000004599 	101324.999999989
0.7870370370370364 	299.9999999999846 	1.000000000005378 	101324.999999989
0.7895395395395389 	299.9999999999718 	1.000000000005762 	101324.9999999888
0.7920420420420413 	299.9999999999784 	1.00000000000474 	101324.999999989
0.794544544544544 	299.9999999999787 	1.000000000006637 	101324.9999999889
0.7970470470470463 	300.0000000000048 	1.000000000008956 	101324.9999999889
0.799549549549549 	300.000000000009 	0.9999999999953495 	101324.9999999888
0.8020520520520515 	299.9999999999878 	1.000000000001136 	101324.9999999892
0.8045545545545539 	299.9999999999415 	1.000000000005747 	101324.9999999891
0.8070570570570563 	299.9999999999525 	1.000000000005267 	101324.999999989
0.8095595595595589 	299.9999999999471 	1.000000000004714 	101324.9999999889
0.8120620620620614 	299.999999999955 	1.0000000000048 	101324.9999999889
0.8145645645645638 	300.0000000000039 	1.000000000005421 	101324.9999999886
0.8170670670670666 	300.0000000000247 	1.000000000009722 	101324.9999999878
0.8195695695695689 	300.0000000000041 	1.000000000011914 	101324.9999999876
0.8220720720720714 	299.9999999999528 	0.9999999999979746 	101324.9999999881
0.8245745745745739 	299.9999999999592 	1.000000000002238 	101324.9999999885
0.8270770770770765 	299.9999999999643 	1.000000000005379 	101324.9999999884
0.8295795795795788 	299.9999999999611 	1.000000000004829 	101324.9999999884
0.8320820820820815 	299.9999999999989 	1.000000000004464 	101324.9999999887
0.834584584584584 	300.000000000001 	1.000000000007617 	101324.999999989
0.8370870870870865 	299.9999999999688 	1.000000000009361 	101324.9999999893
0.8395895895895891 	299.9999999999322 	1.000000000002038 	101324.9999999892
0.8420920920920915 	299.9999999999571 	1.000000000004228 	101324.9999999888
0.844594594594594 	299.9999999999563 	1.000000000006235 	101324.9999999885
0.8470970970970964 	299.9999999999523 	1.000000000006066 	101324.999999989
0.8495995995995991 	299.9999999999897 	1.000000000005597 	101324.9999999896
0.8521021021021015 	299.9999999999869 	1.000000000005478 	101324.9999999898
0.8546046046046039 	299.9999999999724 	1.000000000004756 	101324.9999999898
0.8571071071071066 	299.9999999999927 	1.00000000000893 	101324.9999999894
0.8596096096096089 	299.9999999999787 	1.000000000010993 	101324.9999999891
0.8621121121121116 	299.9999999999625 	0.9999999999976628 	101324.9999999892
0.8646146146146139 	299.9999999999992 	1.000000000002205 	101324.9999999896
0.8671171171171166 	299.999999999977 	1.000000000004615 	101324.9999999893
0.8696196196196189 	299.9999999999378 	1.000000000003854 	101324.9999999889
0.8721221221221216 	299.9999999999667 	1.000000000004241 	101324.999999989
0.874624624624624 	299.9999999999993 	1.000000000004674 	101324.9999999891
0.8771271271271264 	299.9999999999973 	1.000000000004266 	101324.9999999889
0.879629629629629 	299.9999999999984 	1.00000000000812 	101324.9999999887
0.8821321321321317 	299.9999999999841 	1.000000000009966 	101324.9999999887
0.8846346346346339 	299.9999999999426 	0.9999999999981883 	101324.9999999889
0.8871371371371364 	299.9999999999449 	1.000000000004199 	101324.999999989
0.8896396396396391 	299.9999999999564 	1.000000000008047 	101324.9999999889
0.8921421421421414 	299.9999999999607 	1.000000000007766 	101324.9999999888
0.8946446446446441 	299.9999999999744 	1.000000000007003 	101324.9999999887
0.8971471471471464 	299.9999999999934 	1.000000000008718 	101324.9999999885
0.8996496496496489 	299.9999999999868 	1.000000000008785 	101324.9999999878
0.9021521521521517 	299.9999999999832 	1.00000000000254 	101324.9999999877
0.9046546546546541 	299.9999999999939 	1.00000000000547 	101324.9999999876
0.9071571571571564 	299.9999999999655 	1.000000000007237 	101324.9999999876
0.9096596596596589 	299.9999999999438 	1.000000000006845 	101324.9999999881
0.9121621621621616 	299.9999999999804 	1.000000000006484 	101324.9999999889
0.9146646646646639 	299.9999999999749 	1.000000000006958 	101324.9999999891
0.9171671671671666 	299.9999999999508 	1.000000000007202 	101324.9999999891
0.9196696696696689 	299.9999999999766 	1.000000000011115 	101324.9999999891
0.9221721721721714 	299.9999999999765 	1.000000000010425 	101324.9999999887
0.9246746746746741 	299.9999999999385 	0.9999999999964559 	101324.9999999886
0.9271771771771765 	299.9999999999535 	1.00000000000133 	101324.9999999885
0.9296796796796791 	299.9999999999757 	1.000000000005076 	101324.9999999882
0.9321821821821816 	299.9999999999631 	1.000000000004861 	101324.9999999877
0.9346846846846838 	299.9999999999516 	1.00000000000542 	101324.9999999875
0.9371871871871866 	299.9999999999903 	1.000000000006499 	101324.9999999879
0.9396896896896891 	300.0000000000032 	1.000000000006236 	101324.9999999884
0.9421921921921914 	300.0000000000005 	1.000000000010265 	101324.9999999885
0.9446946946946939 	299.9999999999864 	1.000000000010092 	101324.9999999886
0.9471971971971965 	299.9999999999551 	0.9999999999975929 	101324.9999999885
0.9496996996996991 	299.9999999999477 	1.000000000003086 	101324.9999999883
0.9522022022022016 	299.9999999999731 	1.000000000006755 	101324.9999999883
0.9547047047047038 	299.999999999991 	1.000000000006534 	101324.9999999884
0.9572072072072064 	299.9999999999848 	1.00000000000645 	101324.9999999885
0.9597097097097093 	299.9999999999698 	1.000000000009599 	101324.9999999886
0.9622122122122114 	299.9999999999559 	1.000000000009848 	101324.9999999885
0.964714714714714 	299.9999999999465 	1.000000000003824 	101324.9999999884
0.9672172172172167 	299.9999999999355 	1.000000000005923 	101324.9999999884
0.969719719719719 	299.9999999999583 	1.000000000006297 	101324.9999999885
0.9722222222222214 	299.9999999999715 	1.000000000005351 	101324.9999999884
0.9747247247247239 	299.9999999999703 	1.000000000005046 	101324.9999999881
0.9772272272272267 	299.9999999999937 	1.000000000005359 	101324.9999999882
0.9797297297297292 	299.9999999999828 	1.000000000005053 	101324.9999999882
0.9822322322322313 	299.9999999999745 	1.000000000009874 	101324.9999999879
0.9847347347347344 	299.9999999999728 	1.000000000010004 	101324.9999999881
0.9872372372372363 	299.9999999999387 	0.999999999998464 	101324.9999999886
0.9897397397397389 	299.999999999936 	1.00000000000372 	101324.9999999889
0.9922422422422417 	299.9999999999339 	1.000000000007023 	101324.9999999888
0.9947447447447441 	299.9999999999603 	1.000000000006845 	101324.9999999886
0.9972472472472468 	299.9999999999713 	1.000000000006765 	101324.999999988
0.999749749749749 	299.9999999999661 	1.000000000006473 	101324.9999999875
1.002252252252252 	299.9999999999709 	1.000000000005733 	101324.9999999877
1.004754754754754 	299.9999999999879 	1.00000000001082 	101324.9999999882
1.007257257257256 	299.9999999999795 	1.000000000010748 	101324.9999999884
1.009759759759759 	299.9999999999673 	0.99999999999913 	101324.9999999885
1.012262262262261 	299.9999999999656 	1.000000000004579 	101324.9999999887
1.014764764764764 	299.9999999999443 	1.000000000007871 	101324.9999999887
1.017267267267267 	299.9999999999259 	1.00000000000655 	101324.9999999886
1.019769769769769 	299.999999999952 	1.000000000004598 	101324.9999999886
1.022272272272272 	299.9999999999774 	1.000000000006843 	101324.9999999884
1.024774774774774 	299.9999999999852 	1.00000000000692 	101324.9999999881
1.027277277277277 	299.9999999999841 	1.00000000000158 	101324.9999999878
1.029779779779779 	300.0000000000053 	1.000000000004475 	101324.9999999882
1.032282282282282 	300.0000000000082 	1.000000000006251 	101324.9999999885
1.034784784784784 	300.0000000000038 	1.000000000006251 	101324.9999999887
1.037287287287286 	299.9999999999838 	1.000000000006499 	101324.9999999885
1.039789789789789 	299.9999999999807 	1.000000000007001 	101324.9999999881
1.042292292292291 	300.0000000000106 	1.000000000006943 	101324.9999999878
1.044794794794794 	300.0000000000347 	1.000000000012207 	101324.9999999879
1.047297297297296 	300.0000000000473 	1.000000000011305 	101324.9999999878
1.049799799799799 	300.000000000017 	1.000000000000335 	101324.9999999876
1.052302302302302 	299.9999999999828 	1.000000000005039 	101324.9999999876
1.054804804804804 	299.9999999999513 	1.000000000007354 	101324.9999999875
1.057307307307306 	299.9999999999286 	1.00000000000624 	101324.9999999873
1.059809809809809 	299.9999999999516 	1.000000000005943 	101324.9999999872
1.062312312312312 	299.999999999959 	1.000000000006401 	101324.9999999874
1.064814814814814 	299.9999999999596 	1.000000000006752 	101324.9999999878
1.067317317317317 	299.9999999999395 	1.000000000012976 	101324.9999999883
1.069819819819819 	299.999999999924 	1.000000000011424 	101324.9999999884
1.072322322322321 	299.9999999999692 	0.9999999999997669 	101324.9999999879
1.074824824824824 	300.0000000000122 	1.000000000005152 	101324.9999999876
1.077327327327327 	300.0000000000333 	1.000000000009364 	101324.9999999882
1.079829829829829 	300.0000000000472 	1.000000000009928 	101324.9999999887
1.082332332332332 	300.000000000019 	1.000000000009622 	101324.9999999887
1.084834834834834 	299.9999999999848 	1.000000000014952 	101324.9999999885
1.087337337337337 	299.9999999999442 	1.000000000011879 	101324.9999999879
1.089839839839839 	299.9999999999167 	1.000000000000085 	101324.9999999872
1.092342342342342 	299.9999999999424 	1.000000000004774 	101324.9999999871
1.094844844844844 	299.9999999999492 	1.000000000012936 	101324.9999999871
1.097347347347347 	299.9999999999308 	1.000000000010329 	101324.9999999874
1.099849849849849 	299.9999999999235 	0.9999999999999116 	101324.9999999881
1.102352352352352 	299.99999999995 	1.000000000005671 	101324.9999999881
1.104854854854854 	299.9999999999737 	1.00000000000848 	101324.9999999877
1.107357357357357 	299.9999999999609 	1.000000000007948 	101324.9999999872
1.109859859859859 	299.999999999948 	1.000000000007071 	101324.9999999873
1.112362362362362 	299.9999999999922 	1.000000000012008 	101324.9999999874
1.114864864864865 	300.000000000003 	1.000000000009865 	101324.9999999873
1.117367367367367 	299.9999999999677 	0.9999999999998316 	101324.9999999875
1.119869869869869 	299.9999999999328 	1.000000000005637 	101324.9999999875
1.122372372372372 	299.9999999999495 	1.000000000009214 	101324.9999999875
1.124874874874874 	299.9999999999571 	1.000000000008738 	101324.9999999876
1.127377377377377 	299.9999999999502 	1.000000000007949 	101324.9999999879
1.129879879879879 	299.9999999999789 	1.000000000007728 	101324.9999999877
1.132382382382382 	300.0000000000268 	1.000000000006756 	101324.9999999875
1.134884884884884 	300.0000000000225 	1.000000000012315 	101324.9999999873
1.137387387387387 	300.0000000000144 	1.000000000009458 	101324.999999987
1.139889889889889 	299.999999999973 	0.9999999999989109 	101324.9999999869
1.142392392392392 	299.9999999999511 	1.000000000004505 	101324.9999999871
1.144894894894894 	299.9999999999907 	1.000000000007289 	101324.9999999871
1.147397397397397 	299.9999999999943 	1.000000000006419 	101324.9999999869
1.149899899899899 	299.9999999999595 	1.000000000005775 	101324.9999999868
1.152402402402402 	299.9999999999371 	1.000000000005832 	101324.9999999868
1.154904904904904 	299.999999999955 	1.000000000005798 	101324.999999987
1.157407407407407 	299.9999999999585 	1.000000000012186 	101324.9999999873
1.159909909909909 	299.9999999999375 	1.000000000010002 	101324.9999999877
1.162412412412412 	299.99999999993 	1.000000000000191 	101324.9999999881
1.164914914914914 	299.9999999999509 	1.000000000004997 	101324.999999988
1.167417417417417 	299.9999999999511 	1.000000000007361 	101324.999999988
1.169919919919919 	299.9999999999856 	1.000000000006689 	101324.9999999879
1.172422422422422 	300.0000000000271 	1.000000000006295 	101324.9999999876
1.174924924924925 	300.0000000000132 	1.000000000013082 	101324.9999999875
1.177427427427427 	299.9999999999787 	1.00000000001005 	101324.9999999874
1.179929929929929 	299.9999999999939 	1.00000000000003 	101324.9999999872
1.182432432432432 	300.0000000000326 	1.00000000000505 	101324.999999987
1.184934934934934 	300.000000000013 	1.000000000007158 	101324.9999999868
1.187437437437437 	299.9999999999853 	1.00000000000632 	101324.9999999871
1.189939939939939 	299.999999999977 	1.000000000006286 	101324.9999999875
1.192442442442442 	299.9999999999476 	1.000000000006678 	101324.9999999876
1.194944944944944 	299.9999999999303 	1.000000000006112 	101324.9999999877
1.197447447447447 	299.9999999999784 	1.000000000012373 	101324.9999999878
1.199949949949949 	300.0000000000163 	1.000000000009067 	101324.9999999879
1.202452452452452 	299.9999999999773 	0.9999999999998308 	101324.999999988
1.204954954954955 	299.9999999999554 	1.000000000005758 	101324.9999999878
1.207457457457457 	299.9999999999686 	1.000000000007996 	101324.9999999879
1.20995995995996 	299.9999999999735 	1.000000000006874 	101324.999999988
1.212462462462462 	299.9999999999826 	1.000000000007146 	101324.999999988
1.214964964964964 	299.999999999987 	1.000000000007407 	101324.9999999879
1.217467467467467 	299.9999999999886 	1.000000000006125 	101324.9999999874
1.219969969969969 	299.9999999999615 	1.000000000011973 	101324.999999987
1.222472472472472 	299.9999999999826 	1.000000000008531 	101324.9999999872
1.224974974974975 	300.0000000000216 	1.000000000000725 	101324.9999999875
1.227477477477477 	299.9999999999969 	1.000000000006852 	101324.9999999876
1.229979979979979 	299.9999999999835 	1.00000000000897 	101324.9999999875
1.232482482482482 	299.9999999999599 	1.000000000007992 	101324.9999999873
1.234984984984984 	299.9999999999503 	1.000000000007312 	101324.9999999874
1.237487487487487 	299.999999999974 	1.000000000014449 	101324.9999999877
1.239989989989989 	299.9999999999901 	1.000000000010793 	101324.999999988
1.242492492492492 	300.0000000000123 	1.000000000001565 	101324.9999999877
1.244994994994994 	299.9999999999878 	1.000000000007153 	101324.9999999877
1.247497497497497 	299.9999999999912 	1.000000000010018 	101324.9999999877
1.249999999999999 	299.9999999999282 	1.000000000009108 	101324.9999999877
