-1.25 	300 	1 	101325
-1.247497497497497 	299.3701414329257 	36.5781469056019 	101341.2467007461
-1.244994994994995 	299.3884478840764 	34.78196361656294 	101312.0539559491
-1.242492492492492 	299.4550167167587 	33.01036326091773 	101332.1561622434
-1.23998998998999 	299.4946802173157 	31.32328421418561 	101305.6992840276
-1.237487487487487 	299.5528183883218 	29.6749026477599 	101322.5097130796
-1.234984984984985 	299.5861153493952 	28.1091002289098 	101301.8523596401
-1.232482482482482 	299.6347961975709 	26.59071768477638 	101315.6013486766
-1.22997997997998 	299.6638137583832 	25.15105699485551 	101301.145721585
-1.227477477477477 	299.7020916514109 	23.76485896705281 	101310.0923567114
-1.224974974974975 	299.729655783567 	22.4511667731697 	101303.4153841769
-1.222472472472472 	299.7582719810875 	21.19068343834982 	101307.339499261
-1.21996996996997 	299.7853359217938 	19.99296242205718 	101307.8780939683
-1.217467467467467 	299.8055992545198 	18.84969978978832 	101307.2725528805
-1.214964964964965 	299.8324152235761 	17.75560728232662 	101313.8395030837
-1.212462462462462 	299.8462225950774 	16.71949797568986 	101310.0178660488
-1.20995995995996 	299.8727173520716 	15.71918516685713 	101321.3472248505
-1.207457457457457 	299.8824095093787 	14.77958405322245 	101316.2853629462
-1.204954954954955 	299.908058851569 	13.86749604324161 	101330.8096763687
-1.202452452452452 	299.9141233960446 	13.01982083277009 	101324.5651792343
-1.19994994994995 	299.9385953525656 	12.19097136997185 	101341.0848932188
-1.197447447447447 	299.9412046063316 	11.43104768593582 	101333.3865262929
-1.194944944944945 	299.9645206371234 	10.68081368934182 	101351.2757294117
-1.192442442442442 	299.9645915288871 	10.00176263970749 	101342.7416663849
-1.18993993993994 	299.986765035623 	9.325745575594491 	101361.4883009793
-1.187437437437437 	299.9845735330484 	8.721957798134827 	101352.0587484002
-1.184934934934935 	300.0051550066688 	8.114456323408501 	101370.6687345038
-1.182432432432432 	300.0007574471282 	7.579753730267253 	101360.0850141808
-1.17992992992993 	300.0196052901477 	7.036608177718053 	101378.0203564692
-1.177427427427427 	300.013354527925 	6.564243191971538 	101366.4107388409
-1.174924924924925 	300.0304020459331 	6.080275557878868 	101383.2928435746
-1.172422422422422 	300.0225796933253 	5.664427734211784 	101370.760204913
-1.16991991991992 	300.0377574903208 	5.235265333757948 	101386.2548795789
-1.167417417417417 	300.028458099266 	4.869154413549147 	101372.7231841941
-1.164914914914915 	300.0415610512307 	4.490595232842445 	101386.399400022
-1.162412412412412 	300.0309053416011 	4.168392956399364 	101371.8471538273
-1.15990990990991 	300.0420394617922 	3.8365187047159 	101383.6844904685
-1.157407407407407 	300.0305061293571 	3.55247874732436 	101368.5514751487
-1.154904904904904 	300.0399311427667 	3.262549479810775 	101378.7280599575
-1.152402402402403 	300.0277537127365 	3.012345765432788 	101363.1923187546
-1.1498998998999 	300.0354977464115 	2.761468739615007 	101371.652873145
-1.147397397397397 	300.0228926265782 	2.539282137867207 	101355.8871800257
-1.144894894894895 	300.0291629970983 	2.323439573878574 	101362.8067708381
-1.142392392392392 	300.0164890354791 	2.126687043118375 	101347.1749986271
-1.13988988988989 	300.0215837442237 	1.943045479410761 	101352.8540526684
-1.137387387387387 	300.0091650477671 	1.766936539757225 	101337.6843887695
-1.134884884884885 	300.0135103312838 	1.610883541610544 	101342.5863019719
-1.132382382382382 	300.0022600913624 	1.456151929615671 	101328.9292139252
-1.12987987987988 	300.0065253919176 	1.32428682710828 	101333.8134884018
-1.127377377377377 	299.9959941288032 	1.185519957648289 	101321.096939972
-1.124874874874875 	299.9992951340997 	1.075848244007806 	101324.8958422421
-1.122372372372372 	299.9906330711419 	0.9549864699369939 	101314.4698080476
-1.11986986986987 	299.9951816176688 	0.861765442540726 	101319.7730750497
-1.117367367367367 	299.9875959185158 	0.757176124490079 	101310.6823810499
-1.114864864864865 	299.9903323844314 	0.6827500406697734 	101313.8628122231
-1.112362362362362 	299.9844877486431 	0.5883499572302934 	101306.8768884405
-1.10985985985986 	299.9887000398829 	0.5233041457481495 	101311.8114683541
-1.107357357357357 	299.9852162888181 	0.4536950435336405 	101307.6553801012
-1.104854854854855 	299.9905897154035 	0.3980492316728717 	101313.9728520869
-1.102352352352353 	299.9886977006972 	0.3317241553892498 	101311.7117608863
-1.09984984984985 	299.9901507367353 	0.2849200304031133 	101313.4040256193
-1.097347347347347 	299.9885802201759 	0.2400062737659796 	101311.5392159488
-1.094844844844845 	299.9985281546155 	0.195864140080592 	101323.2831274028
-1.092342342342342 	300.0004639947772 	0.1747090906549324 	101325.5709876317
-1.08983983983984 	300.0030685773455 	0.1204475793992178 	101328.635093759
-1.087337337337337 	300.0093953190891 	0.0914648436208934 	101336.114845508
-1.084834834834835 	300.0098210262548 	0.04377288498971954 	101336.6096328974
-1.082332332332332 	300.0150958236223 	0.04561549095098902 	101342.847961321
-1.07982982982983 	300.0187116584903 	0.05582138532497258 	101347.1208724832
-1.077327327327327 	300.0227234916168 	0.06500607602483012 	101351.8652301593
-1.074824824824825 	300.0264603297501 	0.07778375174301511 	101356.2833356536
-1.072322322322323 	300.030065557924 	0.0864784282503253 	101360.5466373204
-1.06981981981982 	300.033419188092 	0.09774430340517518 	101364.5122569128
-1.067317317317317 	300.0365240218234 	0.105312998769468 	101368.1839346706
-1.064814814814815 	300.0393045542404 	0.1138612698075553 	101371.4721385226
-1.062312312312312 	300.0417177445292 	0.1205573337148262 	101374.3259372111
-1.05980980980981 	300.0437076470228 	0.1264013088599433 	101376.6793711864
-1.057307307307307 	300.0452310246799 	0.1307824532440235 	101378.4810176034
-1.054804804804805 	300.0462511078963 	0.1337384693371968 	101379.6874310503
-1.052302302302302 	300.0467602788008 	0.1352207345508963 	101380.289697838
-1.0497997997998 	300.0467612094527 	0.1352346494310402 	101380.2907520875
-1.047297297297297 	300.0462308972091 	0.1336809138897573 	101379.6636406005
-1.044794794794795 	300.0451517562325 	0.1305735773122975 	101378.3875819546
-1.042292292292292 	300.0435903910302 	0.126043992049408 	101376.5410685432
-1.03978978978979 	300.041630223239 	0.1203147403274682 	101374.2229833014
-1.037287287287287 	300.0392205584406 	0.1132929578070018 	101371.3734522742
-1.034784784784785 	300.0362785936617 	0.1048155201339212 	101367.8943765439
-1.032282282282283 	300.032924592644 	0.09520903394470868 	101363.9281923399
-1.02977977977978 	300.0293966454494 	0.08500478810046808 	101359.7564515902
-1.027277277277277 	300.0257914508904 	0.0745427668017522 	101355.4933886967
-1.024774774774775 	300.0220596385864 	0.06374697977162848 	101351.0808418162
-1.022272272272272 	300.0181903240881 	0.05254095681465043 	101346.5058553323
-1.01976976976977 	300.0142468208059 	0.04113235399144707 	101341.8431826908
-1.017267267267267 	300.0103108513882 	0.02970347185185809 	101337.1896641008
-1.014764764764765 	300.0064746299965 	0.01862123899113108 	101332.6542116135
-1.012262262262262 	300.0028799374949 	0.008319147400121804 	101328.4043391959
-1.00975975975976 	299.9997101480645 	0.004290085204356296 	101324.6569976464
-1.007257257257257 	299.9970618467242 	0.008473110466234345 	101321.5262039572
-1.004754754754755 	299.9948528183506 	0.01494171712015741 	101318.9147074612
-1.002252252252252 	299.9928894992747 	0.02063742798287598 	101316.5938736347
-0.9997497497497498 	299.9911205311047 	0.02565109865408138 	101314.5026970675
-0.9972472472472473 	299.9897029625319 	0.02970747696000405 	101312.8268607328
-0.9947447447447449 	299.988860423714 	0.0321322105767433 	101311.8309585633
-0.9922422422422421 	299.9887431822064 	0.03245504088043226 	101311.6922470996
-0.9897397397397399 	299.9894289953996 	0.0305004830138333 	101312.5028164264
-0.9872372372372376 	299.9908480792482 	0.02639665775930696 	101314.1803511428
-0.9847347347347346 	299.992868597737 	0.02056558785617508 	101316.56874723
-0.9822322322322323 	299.9953546291232 	0.01339412541206272 	101319.5074759781
-0.9797297297297296 	299.9981625900969 	0.005262156019436095 	101322.8269808935
-0.9772272272272275 	300.0012258278597 	0.005169083466507498 	101326.448257868
-0.9747247247247248 	300.0045574606356 	0.01329545035632199 	101330.3869302634
-0.9722222222222224 	300.0081438625257 	0.0236509051117827 	101334.6270093176
-0.9697197197197196 	300.0119201601062 	0.03456110531506942 	101339.0916470716
-0.9672172172172175 	300.0158150982891 	0.04580137989558855 	101343.69674736
-0.9647147147147147 	300.0197734914594 	0.05723297332060695 	101348.3770538209
-0.9622122122122124 	300.0237387654445 	0.06869548692723963 	101353.065578102
-0.9597097097097099 	300.0276106619164 	0.07986836656795886 	101357.6439403166
-0.9572072072072073 	300.0312595140225 	0.09043069893845215 	101361.9586886616
-0.9547047047047047 	300.0346309490648 	0.1002192223343614 	101365.9454278924
-0.9522022022022023 	300.0377640841598 	0.1092995760511213 	101369.6506317554
-0.9496996996996998 	300.0406723090958 	0.1177061611389069 	101373.0898580979
-0.9471971971971973 	300.0432712051435 	0.1251845089545435 	101376.1632935736
-0.9446946946946947 	300.0454207160761 	0.1313467290179296 	101378.7055208471
-0.9421921921921923 	300.0470176872178 	0.13594726257941 	101380.5941834405
-0.93968968968969 	300.0480836662952 	0.1390689434364719 	101381.8548941558
-0.9371871871871872 	300.0487209409863 	0.1409380065880978 	101382.6087053333
-0.9346846846846848 	300.0489752999765 	0.1416456674904734 	101382.9095061404
-0.9321821821821823 	300.0487838220446 	0.1410420196676935 	101382.6830400204
-0.9296796796796799 	300.04801594489 	0.1387513206829883 	101381.7750453717
-0.9271771771771771 	300.0465632180299 	0.1345796171173527 	101380.0570210236
-0.9246746746746748 	300.0444804669447 	0.1286704531673244 	101377.5939469794
-0.9221721721721724 	300.0419598868336 	0.1214115406724191 	101374.6131297542
-0.9196696696696698 	300.0391807396957 	0.1133597406051941 	101371.3264918673
-0.9171671671671672 	300.036218297126 	0.1047467402746754 	101367.8232827701
-0.9146646646646649 	300.0330398760605 	0.09547850281003212 	101364.0647294665
-0.9121621621621623 	300.0295539947884 	0.08540654625292338 	101359.9426390726
-0.9096596596596597 	300.0257582313861 	0.07443201598139225 	101355.4543887389
-0.9071571571571573 	300.0217587739464 	0.06286375207968645 	101350.7253069353
-0.9046546546546547 	300.0177116594176 	0.05121558754502648 	101345.9400001299
-0.9021521521521524 	300.013782620382 	0.03989908751588331 	101341.294571527
-0.8996496496496498 	300.0100791579258 	0.02921505054741659 	101336.9158613042
-0.8971471471471473 	300.0066231594462 	0.01919808079147477 	101332.829900175
-0.894644644644645 	300.0034223958642 	0.009886986810471451 	101329.0458589552
-0.892142142142142 	300.0004904659471 	0.00338007263353405 	101325.5796011436
-0.8896396396396397 	299.9978432751922 	0.006275401581644895 	101322.4501363961
-0.8871371371371374 	299.9955692988318 	0.01278390658450602 	101319.7619101466
-0.8846346346346349 	299.993787341403 	0.01795458253755109 	101317.6552685691
-0.8821321321321324 	299.9925754632644 	0.02146249231963389 	101316.222691272
-0.8796296296296297 	299.9920122770396 	0.02303111694554901 	101315.556854358
-0.8771271271271271 	299.9921205005239 	0.02270808881865346 	101315.684661748
-0.8746246246246248 	299.9928614507171 	0.02051425991716282 	101316.5605826164
-0.8721221221221224 	299.9941788271972 	0.01677117306917418 	101318.1178167539
-0.8696196196196196 	299.9959752466651 	0.01171132167366914 	101320.2413552352
-0.8671171171171175 	299.9981307655208 	0.005410596327547361 	101322.7895570891
-0.8646146146146148 	300.0006269450921 	0.004015939608684804 	101325.7404376229
-0.8621121121121121 	300.0035228400972 	0.01027329742320385 	101329.1639561577
-0.8596096096096097 	300.0067874234192 	0.01969691795279839 	101333.0234814203
-0.857107107107107 	300.0103160130867 	0.02987071612508074 	101337.1951914071
-0.8546046046046049 	300.0140288220629 	0.04063798110491103 	101341.5849247657
-0.8521021021021022 	300.0178793233952 	0.05178741309260514 	101346.1375325135
-0.8495995995995997 	300.0218332713903 	0.06321864273435918 	101350.8125844442
-0.8470970970970974 	300.0258180486435 	0.07471327409505073 	101355.5244087767
-0.8445945945945946 	300.029719643743 	0.0859463395875367 	101360.1378609803
-0.8420920920920922 	300.0334413586823 	0.09673561906163246 	101364.5387810506
-0.8395895895895897 	300.0369429750391 	0.1068624842747583 	101368.6797134361
-0.8370870870870872 	300.040210095835 	0.1163176834834705 	101372.543272731
-0.8345845845845846 	300.0432305841301 	0.1250581008383427 	101376.115337023
-0.8320820820820823 	300.0459492032013 	0.1328712530031212 	101379.33057325
-0.8295795795795798 	300.048267243376 	0.139589149909867 	101382.0720032657
-0.8270770770770772 	300.0501045354147 	0.144904085502729 	101384.2450151369
-0.8245745745745746 	300.0514245260799 	0.1486959667534039 	101385.8062247613
-0.8220720720720721 	300.0522224166323 	0.1510156132966206 	101386.7498933909
-0.8195695695695699 	300.0525323067387 	0.1518983769689507 	101387.1165051494
-0.817067067067067 	300.0523796832638 	0.1514592276356148 	101386.9359685135
-0.8145645645645651 	300.0517482884093 	0.1496363370649321 	101386.1892608817
-0.8120620620620621 	300.0506160025722 	0.1463210124575481 	101384.8502512674
-0.8095595595595597 	300.0489485595443 	0.1414645154679635 	101382.8782092035
-0.8070570570570572 	300.0467310473874 	0.1350570668307902 	101380.255701508
-0.8045545545545546 	300.0440265115262 	0.1272836823299912 	101377.0572742778
-0.8020520520520523 	300.0409434825331 	0.1183847725984167 	101373.4112272232
-0.7995495495495494 	300.0375825717304 	0.1086758009279312 	101369.4367859172
-0.7970470470470474 	300.0340532225744 	0.09844508586928802 	101365.2631537283
-0.7945445445445446 	300.0304056398842 	0.08786196430189755 	101360.94979782
-0.7920420420420423 	300.0266640069216 	0.07707912086388852 	101356.5255458825
-0.7895395395395397 	300.0228704270427 	0.06612494982725955 	101352.0398142813
-0.7870370370370371 	300.01907245275 	0.05509613848423059 	101347.5490493363
-0.7845345345345348 	300.0153097458953 	0.04422940635244491 	101343.1002686579
-0.7820320320320323 	300.0116916163713 	0.03374750912021342 	101338.8223748548
-0.7795295295295296 	300.0083037581832 	0.02397365676815188 	101334.8169172104
-0.7770270270270272 	300.0052484367262 	0.01519886840525494 	101331.2047462447
-0.7745245245245247 	300.0026206834771 	0.007573131455471537 	101328.0980337891
-0.7720220220220222 	300.0004655672666 	0.001935653439587235 	101325.5502442518
-0.7695195195195199 	299.998854284867 	0.003257817812231495 	101323.6453366466
-0.767017017017017 	299.9978512612486 	0.006149607285107784 	101322.4594852393
-0.7645145145145147 	299.9974552015377 	0.007260355793011555 	101321.9912789708
-0.7620120120120122 	299.9976327077001 	0.006788656570484855 	101322.2010331325
-0.7595095095095097 	299.9983194081181 	0.004892324763606138 	101323.0127835503
-0.7570070070070072 	299.9993899707288 	0.001746897325515551 	101324.2783783178
-0.7545045045045048 	300.0008375980139 	0.002930526842723139 	101325.989663617
-0.7520020020020022 	300.002730596653 	0.008023555354691821 	101328.2275913263
-0.7494994994994997 	300.0050800707739 	0.01482508913732314 	101331.0051452045
-0.7469969969969972 	300.0078443365931 	0.02282049562595547 	101334.2731227485
-0.7444944944944945 	300.010974894303 	0.03187809460588434 	101337.974406864
-0.7419919919919924 	300.0144320714193 	0.04187976904377764 	101342.0617871795
-0.7394894894894897 	300.0181751593014 	0.05270391626661709 	101346.4873782109
-0.7369869869869872 	300.0221502092703 	0.06419165193938088 	101351.1875309031
-0.7344844844844846 	300.0262811246077 	0.07611987752733232 	101356.0719678513
-0.7319819819819822 	300.0304638619701 	0.08819051098201129 	101361.0179456347
-0.7294794794794797 	300.0345758997155 	0.1000606323847507 	101365.8805454016
-0.7269769769769773 	300.0385086972605 	0.1114311630592704 	101370.5312428092
-0.7244744744744747 	300.0422072341005 	0.1221456493382726 	101374.9051834894
-0.721971971971972 	300.0456746341083 	0.1321927552598098 	101379.0058411871
-0.7194694694694695 	300.0489189189648 	0.1415697722297962 	101382.8427040809
-0.7169669669669674 	300.0518874293699 	0.1501212971436287 	101386.3536274611
-0.7144644644644647 	300.0544616071103 	0.1575317123257354 	101389.3981719426
-0.711961961961962 	300.0565302136271 	0.1635124621764487 	101391.8448320323
-0.7094594594594597 	300.05807353572 	0.1680075135749632 	101393.6702886376
-0.7069569569569573 	300.0591627764711 	0.1711850222216555 	101394.9586383043
-0.7044544544544545 	300.0598614330486 	0.1731901142498435 	101395.785071424
-0.7019519519519523 	300.0601276444257 	0.1739043207851648 	101396.099914212
-0.6994494494494495 	300.0598260622498 	0.1729836602604508 	101395.7431765464
-0.6969469469469471 	300.0588528985343 	0.1701765835043937 	101394.5923433938
-0.6944444444444446 	300.0572575669678 	0.1656227680660647 	101392.7054612498
-0.6919419419419421 	300.0552299399596 	0.1598163946676924 	101390.3073596574
-0.6894394394394396 	300.052954101976 	0.1532335119681198 	101387.6157543093
-0.6869369369369374 	300.0504636392196 	0.1459690691421258 	101384.6702259537
-0.6844344344344344 	300.047640474914 	0.13773769899091 	101381.3314189853
-0.6819319319319321 	300.0443632982617 	0.1282513742910224 	101377.4556874373
-0.6794294294294296 	300.0406700165002 	0.1176327022216621 	101373.0879204818
-0.6769269269269272 	300.0367847003226 	0.1064779028545053 	101368.4933728588
-0.6744244244244245 	300.032977798724 	0.09550029300187186 	101363.9915161407
-0.6719219219219222 	300.0293881575786 	0.08508320580642433 	101359.7467557705
-0.6694194194194195 	300.0259754277303 	0.07515434802423632 	101355.7114337311
-0.6669169169169172 	300.0226376102646 	0.06548464656955703 	101351.764616869
-0.6644144144144146 	300.0193842047952 	0.05613164865409977 	101347.9177710434
-0.661911911911912 	300.0164098845293 	0.04762228618161231 	101344.4009720945
-0.6594094094094097 	300.0139953302448 	0.04069944869949219 	101341.5459741794
-0.656906906906907 	300.0123193214415 	0.03582614725189846 	101339.5643743067
-0.6544044044044046 	300.0113217669814 	0.03283847055144731 	101338.3848573287
-0.6519019019019021 	300.0107434203721 	0.03106915372379113 	101337.7010305288
-0.6493993993993996 	300.0103425248046 	0.02989941579943822 	101337.2271540927
-0.6468968968968971 	300.010103653259 	0.02930212500575412 	101336.9446949584
-0.6443943943943946 	300.0102777524867 	0.02996353836968067 	101337.1505315472
-0.6418918918918921 	300.0112536696882 	0.03293774440759439 	101338.3043084946
-0.6393893893893897 	300.0133412641434 	0.03900975657264332 	101340.7723200322
-0.6368868868868871 	300.0165059443896 	0.04801043523584771 	101344.5140047078
-0.6343843843843846 	300.0202517943999 	0.05859982611543486 	101348.9429114817
-0.6318818818818821 	300.0238772563903 	0.06891124165065475 	101353.229660317
-0.6293793793793795 	300.0268948247461 	0.07765196255911275 	101356.7978457765
-0.6268768768768773 	300.0293305553822 	0.08491421691202118 	101359.677944203
-0.6243743743743745 	300.0317481079844 	0.0922355848405217 	101362.536684291
-0.6218718718718721 	300.0349831214462 	0.1019064501536761 	101366.3619855914
-0.6193693693693696 	300.0397679395691 	0.1159000570656297 	101372.0200957472
-0.6168668668668671 	300.0463469534393 	0.1348022727451594 	101379.8004912424
-0.6143643643643645 	300.054215472793 	0.1571787869925045 	101389.1064280841
-0.6118618618618621 	300.0622254725436 	0.1798755517219834 	101398.5804888858
-0.6093593593593596 	300.0690289447078 	0.1991566574639147 	101406.62821027
-0.6068568568568571 	300.0735467962996 	0.212037794807226 	101411.9725623384
-0.6043543543543546 	300.0753453870074 	0.2173632343054393 	101414.1003612734
-0.6018518518518521 	300.0748523150825 	0.2163576341348151 	101413.5170368182
-0.5993493493493496 	300.0732699773666 	0.2123496629628756 	101411.645441164
-0.5968468468468471 	300.0721641815698 	0.2096987246809647 	101410.3375196338
-0.5943443443443446 	300.0729870579275 	0.2124984091097548 	101411.3110955519
-0.591841841841842 	300.0767398428273 	0.2235434960302087 	101415.74977447
-0.5893393393393397 	300.0837158744972 	0.2436024927303745 	101424.0017562762
-0.5868368368368371 	300.0933578777063 	0.2710768872340615 	101435.4085467781
-0.5843343343343346 	300.1043558575562 	0.3023178229373067 	101448.4209950214
-0.5818318318318321 	300.1150225172702 	0.3326054748538102 	101461.0427870836
-0.5793293293293297 	300.1237218776524 	0.3572982213496665 	101471.3376118351
-0.5768268268268271 	300.1291515399529 	0.3726806589559346 	101477.7637241213
-0.5743243243243245 	300.1305070249632 	0.3764532058758826 	101479.36743141
-0.5718218218218221 	300.1275510143032 	0.3679388669448687 	101475.8689322484
-0.5693193193193196 	300.1205998361835 	0.3480327554152945 	101467.6441597767
-0.5668168168168171 	300.1104246356775 	0.3189038556720395 	101455.6040736976
-0.5643143143143147 	300.0980693859767 	0.2835041019193331 	101440.985221529
-0.5618118118118121 	300.0846538368602 	0.2450049416958406 	101425.1134345795
-0.5593093093093094 	300.0711901986875 	0.2062855041894901 	101409.1864779549
-0.5568068068068072 	300.0584568629258 	0.1695857180891834 	101394.1250383857
-0.5543043043043046 	300.0469612584496 	0.1363883764605858 	101380.5289665925
-0.551801801801802 	300.036969439227 	0.1074842737070834 	101368.7124781045
-0.5492992992992995 	300.02855906964 	0.08311767782189365 	101358.7669756437
-0.5467967967967969 	300.0216747337303 	0.06314446473519365 	101350.6265510676
-0.5442942942942947 	300.01617747243 	0.04717490674597948 	101344.1266018534
-0.5417917917917919 	300.0118848786538 	0.03468984017358211 	101339.0512449928
-0.5392892892892895 	300.0086007797103 	0.02512709193372239 	101335.168398806
-0.536786786786787 	300.0061352444663 	0.01794006555420955 	101332.2534187795
-0.5342842842842846 	300.0043165405633 	0.01263303351579631 	101330.1032163092
-0.531781781781782 	300.0029969607168 	0.008778601333790787 	101328.5431321252
-0.5292792792792794 	300.0020543563923 	0.006022627734070841 	101327.4287392127
-0.526776776776777 	300.0013909410973 	0.004081116939525461 	101326.6444214149
-0.5242742742742745 	300.0009305764217 	0.002732605793147551 	101326.1001604602
-0.521771771771772 	300.000615408591 	0.001808581749631367 	101325.72755759
-0.5192692692692695 	300.0004024285008 	0.001183609452994892 	101325.475765168
-0.516766766766767 	300.0002602930796 	0.0007661661718835547 	101325.3077277199
-0.5142642642642645 	300.0001665752069 	0.0004906902656015759 	101325.1969312688
-0.511761761761762 	300.0001054992003 	0.0003110134298808117 	101325.1247251006
-0.5092592592592596 	300.0000661437482 	0.0001951407033291087 	101325.0781976639
-0.506756756756757 	300.0000410611929 	0.0001212318658275992 	101325.0485442023
-0.5042542542542544 	300.0000252450406 	7.45904029121635e-05 	101325.0298456862
-0.5017517517517521 	300.0000153749308 	4.54609078119314e-05 	101325.0181768185
-0.4992492492492494 	300.0000092774513 	2.74516726053454e-05 	101325.0109681357
-0.496746746746747 	300.0000055475533 	1.642696989757432e-05 	101325.006558559
-0.4942442442442445 	300.000003287824 	9.742755060303143e-06 	101325.0038870718
-0.4917417417417421 	300.0000019316556 	5.728178886072042e-06 	101325.0022837537
-0.4892392392392395 	300.0000011252198 	3.339117939512455e-06 	101325.0013303286
-0.486736736736737 	300.0000006499621 	1.930173482450327e-06 	101325.0007684555
-0.4842342342342345 	300.0000003723006 	1.106553606787772e-06 	101325.0004402429
-0.481731731731732 	300.0000002116511 	6.292555878996405e-07 	101325.0002501731
-0.4792292292292296 	300.0000001193223 	3.549861944567421e-07 	101325.0001410329
-0.4767267267267268 	300.0000000666793 	1.98701147165756e-07 	101325.0000788831
-0.4742242242242246 	300.0000000370302 	1.103609742522315e-07 	101325.0000437804
-0.471721721721722 	300.0000000203532 	6.083835190304919e-08 	101325.0000241127
-0.4692192192192195 	300.0000000111219 	3.328421467337804e-08 	101325.0000131799
-0.4667167167167169 	300.0000000059557 	1.808154677863702e-08 	101325.0000071495
-0.4642142142142145 	300.00000000326 	9.748862770070573e-09 	101325.0000038485
-0.461711711711712 	300.0000000017665 	5.222978096205443e-09 	101325.0000020549
-0.4592092092092094 	300.0000000009344 	2.776487368977308e-09 	101325.0000010876
-0.456706706706707 	300.0000000005405 	1.469552326673341e-09 	101325.0000005697
-0.4542042042042045 	300.0000000001891 	7.707801000553564e-10 	101325.0000002943
-0.451701701701702 	300.0000000000808 	4.043813616028809e-10 	101325.0000001487
-0.4491991991991995 	300.0000000000176 	2.089359009842806e-10 	101325.0000000723
-0.4466966966966969 	299.9999999999761 	1.102011500016646e-10 	101325.0000000324
-0.4441941941941945 	300.0000000000099 	5.481082596389289e-11 	101325.0000000118
-0.441691691691692 	299.9999999999611 	3.104825943417389e-11 	101325.0000000012
-0.4391891891891895 	299.9999999999942 	1.259483700976477e-11 	101324.9999999957
-0.436686686686687 	299.9999999999722 	1.080510412572395e-11 	101324.9999999929
-0.4341841841841846 	299.9999999999937 	2.17958531900269e-12 	101324.9999999916
-0.431681681681682 	299.9999999999413 	4.975381311418133e-12 	101324.9999999913
-0.4291791791791794 	299.9999999999255 	2.181837953218807e-12 	101324.9999999914
-0.426676676676677 	299.9999999999002 	2.968965320713761e-12 	101324.9999999912
-0.4241741741741744 	299.9999999999639 	2.109362964821267e-12 	101324.9999999911
-0.421671671671672 	300.0000000000085 	2.702042406890516e-12 	101324.9999999911
-0.4191691691691694 	300.0000000000566 	5.874942986394723e-13 	101324.9999999909
-0.4166666666666669 	300.0000000000639 	3.537763772258058e-12 	101324.999999991
-0.4141641641641645 	299.9999999999277 	2.800351473246498e-12 	101324.999999991
-0.411661661661662 	300.0000000000011 	4.708186984355483e-12 	101324.9999999911
-0.4091591591591594 	300.0000000000041 	4.204965372453411e-12 	101324.999999991
-0.406656656656657 	299.9999999999395 	6.232945662772552e-12 	101324.9999999908
-0.4041541541541545 	300.0000000000193 	3.755021189960899e-12 	101324.9999999909
-0.401651651651652 	299.9999999999169 	6.109381054912466e-12 	101324.999999991
-0.3991491491491494 	299.9999999999978 	1.77462742960723e-12 	101324.999999991
-0.396646646646647 	299.9999999999503 	6.028557486814112e-12 	101324.9999999912
-0.3941441441441444 	299.9999999999789 	1.799168371823349e-12 	101324.9999999911
-0.3916416416416419 	299.9999999999328 	4.559159572706276e-12 	101324.9999999909
-0.3891391391391395 	299.9999999999565 	1.358678210978624e-12 	101324.9999999909
-0.3866366366366368 	299.9999999999555 	2.541180936367183e-12 	101324.9999999908
-0.3841341341341344 	299.9999999999936 	9.578803945983981e-13 	101324.9999999908
-0.381631631631632 	299.9999999999442 	1.174791713162936e-12 	101324.9999999907
-0.3791291291291294 	300.0000000000036 	4.113570488598278e-13 	101324.999999991
-0.3766266266266269 	300.0000000000251 	3.032916443391687e-13 	101324.9999999909
-0.3741241241241244 	300.0000000000267 	1.704674086426534e-12 	101324.9999999911
-0.371621621621622 	300.0000000000176 	1.23135699225406e-12 	101324.999999991
-0.3691191191191194 	300.0000000000115 	2.813186542643143e-12 	101324.9999999913
-0.366616616616617 	300.0000000000092 	1.488713975742221e-12 	101324.9999999914
-0.3641141141141143 	299.9999999999648 	3.184755181634115e-12 	101324.9999999912
-0.3616116116116119 	299.999999999943 	1.072215754707894e-12 	101324.9999999912
-0.3591091091091095 	299.9999999999827 	1.714769722292982e-12 	101324.9999999911
-0.356606606606607 	299.9999999999698 	1.332624122256284e-12 	101324.9999999913
-0.3541041041041044 	299.9999999999887 	1.180929102321096e-12 	101324.9999999914
-0.3516016016016019 	300.0000000000085 	2.329948209914461e-12 	101324.9999999914
-0.3490990990990994 	299.9999999999949 	1.146254811146598e-12 	101324.9999999912
-0.346596596596597 	300.0000000000456 	3.987484023513729e-12 	101324.9999999913
-0.3440940940940944 	300.0000000000536 	1.479638419169389e-12 	101324.9999999914
-0.3415915915915919 	300.0000000000182 	3.978839025754513e-12 	101324.9999999914
-0.3390890890890895 	299.9999999999748 	1.176045229969935e-12 	101324.9999999913
-0.3365865865865869 	300.000000000022 	2.086777951399613e-12 	101324.9999999912
-0.3340840840840844 	300.0000000000041 	8.481625678202403e-13 	101324.999999991
-0.3315815815815819 	300.000000000023 	1.776652862926786e-12 	101324.999999991
-0.3290790790790794 	300.0000000000209 	1.18119489974641e-12 	101324.9999999911
-0.3265765765765769 	299.9999999999212 	2.064499474872403e-12 	101324.9999999912
-0.3240740740740744 	299.9999999999933 	7.326050248586899e-13 	101324.9999999912
-0.3215715715715718 	300.0000000000049 	2.820563434581851e-12 	101324.9999999913
-0.3190690690690695 	299.9999999999272 	8.860758117412972e-13 	101324.9999999912
-0.3165665665665668 	299.9999999999929 	3.440982616149773e-12 	101324.9999999912
-0.3140640640640644 	300.0000000000036 	6.013697697989337e-13 	101324.9999999912
-0.311561561561562 	299.9999999999217 	4.074474702672925e-12 	101324.9999999912
-0.3090590590590593 	299.9999999999969 	1.275975946874532e-12 	101324.9999999911
-0.3065565565565568 	300.0000000000089 	6.052300868389536e-12 	101324.9999999911
-0.3040540540540545 	300.0000000000022 	1.384339696234752e-12 	101324.9999999913
-0.3015515515515518 	300.0000000000387 	6.017926449190721e-12 	101324.9999999912
-0.2990490490490494 	299.9999999999424 	2.501638113539307e-12 	101324.9999999911
-0.2965465465465469 	299.9999999999865 	4.968847458829501e-12 	101324.9999999911
-0.2940440440440444 	300.0000000000032 	3.195538170013275e-12 	101324.9999999909
-0.2915415415415418 	300.0000000000028 	3.41906609818987e-12 	101324.9999999908
-0.2890390390390395 	300.000000000006 	3.184732787473576e-12 	101324.9999999908
-0.2865365365365368 	299.99999999998 	1.903026945835954e-12 	101324.9999999905
-0.2840340340340343 	299.999999999998 	3.688077682599399e-12 	101324.9999999906
-0.2815315315315318 	299.999999999921 	1.297929957942987e-12 	101324.9999999905
-0.2790290290290295 	299.9999999999589 	3.220643292809314e-12 	101324.9999999907
-0.2765265265265269 	300.0000000000089 	1.97061059840869e-12 	101324.9999999908
-0.2740240240240244 	300.0000000000259 	3.317283313444368e-12 	101324.9999999907
-0.2715215215215219 	300.0000000000118 	3.773509404339669e-12 	101324.9999999908
-0.2690190190190194 	299.9999999999379 	3.712569170045273e-12 	101324.9999999907
-0.2665165165165169 	299.9999999999964 	4.594693390194902e-12 	101324.9999999908
-0.2640140140140144 	299.9999999999628 	3.21867969109781e-12 	101324.999999991
-0.2615115115115119 	300.000000000001 	4.706178752019121e-12 	101324.9999999908
-0.2590090090090094 	299.9999999999254 	3.09473705343343e-12 	101324.9999999909
-0.2565065065065068 	299.9999999999923 	3.614247501882697e-12 	101324.9999999909
-0.2540040040040044 	299.9999999999969 	4.060998891979811e-12 	101324.999999991
-0.2515015015015019 	300.0000000000421 	3.590467482111106e-12 	101324.9999999909
-0.2489989989989994 	300.0000000000471 	6.142679437338655e-12 	101324.9999999909
-0.2464964964964968 	299.9999999999903 	2.746313002827833e-12 	101324.9999999907
-0.2439939939939944 	299.9999999999968 	6.472876600900402e-12 	101324.999999991
-0.2414914914914919 	299.9999999999681 	2.108125443917146e-12 	101324.9999999906
-0.2389889889889893 	300.0000000000067 	7.153196228410535e-12 	101324.9999999904
-0.2364864864864869 	300.000000000023 	2.739204578670255e-12 	101324.9999999902
-0.2339839839839843 	299.9999999999267 	6.128734590685103e-12 	101324.99999999
-0.2314814814814819 	299.9999999999807 	1.029853941755205e-12 	101324.9999999902
-0.2289789789789792 	299.9999999999119 	4.490822031871808e-12 	101324.9999999905
-0.2264764764764769 	299.9999999999454 	1.937687980818077e-12 	101324.9999999905
-0.2239739739739743 	299.9999999999559 	3.517766395685907e-12 	101324.9999999907
-0.2214714714714718 	299.9999999999374 	2.673512624735621e-12 	101324.999999991
-0.2189689689689693 	299.9999999999662 	2.895240576730949e-12 	101324.9999999912
-0.2164664664664669 	299.9999999999823 	4.789731495963196e-12 	101324.9999999912
-0.2139639639639643 	299.9999999999317 	3.656077936732765e-12 	101324.9999999913
-0.2114614614614618 	299.9999999999734 	4.789332970047413e-12 	101324.9999999913
-0.2089589589589593 	299.9999999999914 	4.508127665961067e-12 	101324.9999999915
-0.2064564564564568 	299.9999999999901 	3.95665981781413e-12 	101324.9999999911
-0.2039539539539543 	299.9999999999017 	4.935239784015412e-12 	101324.999999991
-0.2014514514514518 	299.9999999999459 	1.845652434543311e-12 	101324.999999991
-0.1989489489489494 	299.9999999999677 	4.80429080264429e-12 	101324.9999999912
-0.1964464464464468 	299.9999999999936 	1.496783067545873e-12 	101324.9999999912
-0.1939439439439443 	299.9999999999853 	5.081351518082094e-12 	101324.9999999912
-0.1914414414414418 	299.9999999999139 	2.212498069827067e-12 	101324.999999991
-0.1889389389389393 	300.000000000004 	3.752047222534386e-12 	101324.9999999909
-0.1864364364364368 	300.0000000000418 	2.196865720263368e-12 	101324.9999999908
-0.1839339339339343 	299.999999999973 	3.176108373212155e-12 	101324.9999999907
-0.1814314314314318 	299.9999999999944 	1.857652961521631e-12 	101324.999999991
-0.1789289289289293 	299.9999999998929 	3.330814943101264e-12 	101324.9999999911
-0.1764264264264268 	299.9999999999764 	1.279797046777825e-12 	101324.9999999908
-0.1739239239239243 	299.9999999998917 	4.06972134826514e-12 	101324.9999999908
-0.1714214214214218 	299.9999999999885 	4.251817498600972e-13 	101324.9999999908
-0.1689189189189193 	299.9999999999486 	5.218654945543305e-12 	101324.9999999907
-0.1664164164164168 	300.0000000000031 	1.625626823315786e-12 	101324.9999999904
-0.1639139139139143 	299.9999999999815 	6.682114811570684e-12 	101324.9999999902
-0.1614114114114118 	300.0000000000253 	3.107212612272758e-12 	101324.9999999902
-0.1589089089089093 	299.9999999999923 	8.467278751965777e-12 	101324.9999999903
-0.1564064064064068 	299.9999999999822 	4.060025163461873e-12 	101324.9999999903
-0.1539039039039043 	299.9999999999896 	9.267800436067659e-12 	101324.9999999904
-0.1514014014014018 	300.0000000000254 	3.192664991428781e-12 	101324.9999999902
-0.1488988988988993 	299.999999999981 	8.548373377701205e-12 	101324.9999999902
-0.1463963963963968 	300.0000000000012 	1.938192868206251e-12 	101324.99999999
-0.1438938938938943 	299.9999999999494 	7.648062161551151e-12 	101324.9999999899
-0.1413913913913918 	299.9999999999176 	4.674412985638738e-13 	101324.9999999898
-0.1388888888888893 	299.9999999999768 	5.897198881279036e-12 	101324.9999999898
-0.1363863863863868 	299.9999999998838 	1.53257958299722e-12 	101324.9999999899
-0.1338838838838843 	299.9999999999094 	5.292267655496865e-12 	101324.9999999899
-0.1313813813813818 	299.9999999999947 	2.487545043536756e-12 	101324.9999999897
-0.1288788788788793 	299.9999999999584 	4.861732762686211e-12 	101324.9999999901
-0.1263763763763768 	299.9999999999682 	9.918556333888714e-13 	101324.9999999904
-0.1238738738738743 	299.9999999999273 	3.869531098017928e-12 	101324.9999999906
-0.1213713713713717 	299.9999999999795 	1.987775327260942e-13 	101324.9999999908
-0.1188688688688693 	300.0000000000075 	4.890905010084019e-12 	101324.9999999911
-0.1163663663663668 	299.9999999999016 	3.317653022011574e-13 	101324.9999999911
-0.1138638638638643 	299.9999999999862 	5.923847581086184e-12 	101324.9999999912
-0.1113613613613618 	299.9999999999862 	2.926842574920568e-13 	101324.9999999914
-0.1088588588588592 	299.9999999999746 	6.959331783876152e-12 	101324.9999999914
-0.1063563563563568 	299.9999999999542 	8.355314409161632e-13 	101324.9999999914
-0.1038538538538543 	299.9999999999737 	6.608283030322381e-12 	101324.9999999912
-0.1013513513513517 	300.0000000000147 	2.19476680054348e-12 	101324.9999999911
-0.09884884884884926 	299.9999999999433 	6.029672295962368e-12 	101324.9999999912
-0.09634634634634676 	299.9999999998889 	2.388160374355696e-12 	101324.9999999914
-0.09384384384384425 	299.9999999999259 	4.246737935483701e-12 	101324.9999999912
-0.09134134134134177 	300.0000000000216 	2.030240193129859e-12 	101324.9999999911
-0.08883883883883925 	300.0000000000105 	4.08004680353839e-12 	101324.9999999911
-0.08633633633633674 	299.9999999999516 	2.88919527303345e-12 	101324.9999999911
-0.08383383383383426 	300.0000000000101 	2.982151533474765e-12 	101324.999999991
-0.08133133133133173 	299.9999999999678 	2.58036434902548e-12 	101324.9999999908
-0.07882882882882926 	299.9999999998795 	1.878314720225177e-12 	101324.999999991
-0.07632632632632676 	299.9999999999586 	1.238998476552923e-12 	101324.9999999911
-0.07382382382382424 	299.9999999998931 	4.13316600548161e-13 	101324.9999999911
-0.07132132132132173 	300.0000000000128 	3.040503021641343e-13 	101324.9999999913
-0.06881881881881925 	299.9999999999537 	2.92648436466537e-13 	101324.9999999911
-0.06631631631631671 	299.9999999998867 	1.689846317119179e-13 	101324.9999999912
-0.06381381381381425 	299.9999999999512 	5.704313390459481e-13 	101324.9999999912
-0.06131131131131173 	299.9999999999542 	1.167959335869612e-12 	101324.9999999909
-0.05880880880880923 	299.9999999999171 	1.046065860625191e-12 	101324.999999991
-0.05630630630630672 	299.9999999999619 	1.065025140010139e-12 	101324.9999999912
-0.05380380380380424 	300.0000000000148 	1.623073089123642e-12 	101324.999999991
-0.05130130130130173 	300.0000000000115 	1.831106835863913e-12 	101324.9999999911
-0.04879879879879922 	299.9999999999381 	1.726682086349824e-12 	101324.9999999911
-0.04629629629629672 	299.9999999999301 	7.60310257231929e-13 	101324.999999991
-0.04379379379379422 	299.9999999999122 	8.175195294201668e-13 	101324.9999999909
-0.04129129129129173 	299.9999999999748 	2.044845493757385e-13 	101324.9999999909
-0.03878878878878922 	299.9999999999806 	1.27265484412893e-13 	101324.999999991
-0.03628628628628671 	299.999999999977 	3.924431185941311e-13 	101324.999999991
-0.03378378378378422 	299.999999999922 	3.104251122317188e-13 	101324.9999999909
-0.03128128128128172 	299.9999999999665 	7.84115487634012e-13 	101324.9999999911
-0.02877877877877922 	299.9999999999675 	2.74415895774676e-13 	101324.999999991
-0.0262762762762767 	299.999999999896 	4.468613785100613e-13 	101324.999999991
-0.02377377377377422 	300.0000000000209 	2.244618279527873e-13 	101324.9999999913
-0.0212712712712717 	299.9999999999003 	1.688425998925075e-13 	101324.9999999913
-0.01876876876876921 	299.9999999999733 	1.998035791209828e-13 	101324.9999999913
-0.01626626626626671 	300.0000000000154 	7.006644370706267e-13 	101324.9999999913
-0.0137637637637642 	299.9999999999645 	4.796914398233733e-13 	101324.9999999913
-0.0112612612612617 	300.0000000000146 	8.989953622845923e-13 	101324.9999999909
-0.008758758758759198 	299.9999999999962 	8.205754177530548e-13 	101324.999999991
-0.006256256256256697 	299.9999999998839 	1.531406929900912e-12 	101324.9999999909
-0.003753753753754195 	299.9999999999504 	6.914631650556049e-13 	101324.9999999909
-0.001251251251251693 	299.9999999999245 	9.60064900382127e-13 	101324.9999999907
0.00125125125125081 	299.9999999999501 	2.161512527520263e-13 	101324.9999999908
0.003753753753753312 	299.9999999999623 	8.419674211021749e-13 	101324.9999999906
0.006256256256255817 	299.9999999998836 	3.890353341565336e-13 	101324.9999999904
0.008758758758758317 	299.9999999999861 	3.186000654914818e-13 	101324.9999999905
0.01126126126126082 	300.0000000000076 	2.682987452327233e-13 	101324.9999999903
0.01376376376376332 	299.9999999999668 	4.457382136083872e-13 	101324.9999999904
0.01626626626626582 	300.000000000009 	3.986821808345756e-13 	101324.9999999903
0.01876876876876833 	299.9999999999527 	1.278560269073535e-12 	101324.9999999901
0.02127127127127083 	299.9999999999698 	1.21137600423823e-12 	101324.99999999
0.02377377377377332 	299.9999999999931 	1.625749878475503e-12 	101324.9999999902
0.02627627627627583 	299.9999999998997 	1.635838430819475e-12 	101324.9999999901
0.02877877877877833 	300.0000000000067 	7.23669345747843e-13 	101324.9999999905
0.03128128128128083 	299.9999999999438 	4.916368043581596e-13 	101324.9999999908
0.03378378378378333 	299.9999999998986 	2.498227974981649e-14 	101324.9999999909
0.03628628628628584 	299.9999999999695 	1.323309342899756e-13 	101324.9999999908
0.03878878878878834 	299.9999999999787 	1.184513951586071e-13 	101324.9999999909
0.04129129129129084 	299.9999999999758 	2.440878017724085e-13 	101324.9999999909
0.04379379379379333 	299.9999999999386 	1.944041386653263e-13 	101324.9999999907
0.04629629629629585 	299.9999999998798 	1.860731809821793e-13 	101324.9999999905
0.04879879879879834 	299.9999999999515 	9.059139537867531e-14 	101324.9999999906
0.05130130130130085 	300.0000000000124 	3.618564544785942e-13 	101324.9999999905
0.05380380380380335 	300.0000000000211 	1.240910395461357e-12 	101324.9999999905
0.05630630630630584 	299.9999999999907 	1.833592912476848e-12 	101324.9999999904
0.05880880880880836 	299.9999999999174 	1.718681935018793e-12 	101324.9999999904
0.06131131131131085 	299.9999999999686 	7.918820538820366e-13 	101324.9999999904
0.06381381381381336 	299.9999999999596 	1.405294138238897e-13 	101324.9999999904
0.06631631631631586 	299.9999999998839 	1.365801358895737e-13 	101324.9999999902
0.06881881881881835 	299.9999999999496 	5.157430596017501e-13 	101324.9999999902
0.07132132132132088 	299.9999999999882 	9.093419951146604e-14 	101324.9999999901
0.07382382382382337 	299.9999999998981 	7.356568252531802e-13 	101324.99999999
0.07632632632632587 	299.9999999999683 	1.293379472831938e-12 	101324.9999999899
0.07882882882882837 	299.9999999999349 	1.610987207479326e-12 	101324.9999999901
0.08133133133133086 	299.9999999999835 	2.179331069109604e-12 	101324.9999999902
0.08383383383383337 	299.9999999999825 	1.34692856580347e-12 	101324.9999999901
0.08633633633633589 	299.9999999998963 	1.009673607913032e-12 	101324.9999999901
0.08883883883883838 	300.0000000000078 	8.423493490637244e-13 	101324.9999999904
0.09134134134134086 	299.999999999984 	2.234908067287366e-13 	101324.9999999906
0.09384384384384339 	299.9999999998916 	8.269143299528602e-13 	101324.9999999907
0.09634634634634588 	299.9999999999619 	1.128786180418906e-12 	101324.9999999904
0.09884884884884838 	299.9999999999682 	1.599796909519768e-12 	101324.9999999904
0.1013513513513509 	300.0000000000236 	1.455722220347279e-12 	101324.9999999905
0.1038538538538534 	299.9999999999522 	1.970675840168911e-12 	101324.9999999904
0.1063563563563559 	300.0000000000176 	2.459361161302929e-12 	101324.9999999905
0.1088588588588584 	300.000000000025 	1.733670055318352e-12 	101324.9999999905
0.1113613613613609 	299.9999999999124 	1.530889451199528e-12 	101324.9999999906
0.1138638638638634 	299.999999999942 	1.879745193469949e-12 	101324.9999999906
0.1163663663663659 	299.999999999939 	2.028547146729564e-12 	101324.9999999906
0.1188688688688684 	299.9999999999641 	2.349908663516897e-12 	101324.9999999905
0.1213713713713709 	299.9999999999907 	2.367675639441139e-12 	101324.9999999903
0.1238738738738734 	299.999999999922 	3.019611698923403e-12 	101324.9999999901
0.1263763763763759 	299.9999999999839 	3.92557688655201e-12 	101324.9999999904
0.1288788788788784 	299.9999999999895 	3.521772325828388e-12 	101324.9999999907
0.1313813813813809 	299.9999999999862 	3.926307327160729e-12 	101324.9999999904
0.1338838838838834 	299.9999999999761 	3.567954485786309e-12 	101324.99999999
0.1363863863863859 	300.0000000000305 	3.307311503418935e-12 	101324.9999999899
0.1388888888888884 	300.0000000000493 	3.295845554631873e-12 	101324.9999999897
0.1413913913913909 	299.9999999999999 	2.810393720115221e-12 	101324.9999999898
0.1438938938938934 	299.999999999994 	3.072349353445385e-12 	101324.9999999898
0.1463963963963959 	299.9999999999548 	2.440742987524831e-12 	101324.9999999899
0.1488988988988985 	299.999999999903 	3.916257415968309e-12 	101324.99999999
0.1514014014014009 	299.9999999999675 	2.637528772855982e-12 	101324.9999999903
0.1539039039039035 	299.9999999999603 	4.468464653765874e-12 	101324.9999999905
0.1564064064064059 	299.9999999999343 	1.648124933962173e-12 	101324.9999999906
0.1589089089089084 	299.99999999998 	5.247180849925822e-12 	101324.9999999906
0.1614114114114109 	299.9999999999746 	2.610688507094044e-12 	101324.9999999905
0.1639139139139134 	299.9999999999106 	4.011106402477075e-12 	101324.9999999904
0.166416416416416 	299.9999999999998 	3.312958124596078e-12 	101324.9999999905
0.1689189189189185 	300.0000000000312 	3.220745603818945e-12 	101324.9999999908
0.1714214214214209 	299.9999999999945 	3.747120873091549e-12 	101324.9999999911
0.1739239239239235 	299.9999999999878 	2.805278804300981e-12 	101324.9999999909
0.1764264264264259 	299.9999999999654 	5.05736133300311e-12 	101324.9999999905
0.1789289289289284 	300.0000000000052 	2.364216006576953e-12 	101324.9999999905
0.181431431431431 	299.9999999999616 	4.659938529230877e-12 	101324.9999999904
0.1839339339339334 	299.9999999999634 	2.295732910248985e-12 	101324.9999999901
0.186436436436436 	299.9999999999226 	2.673307178480787e-12 	101324.9999999899
0.1889389389389385 	299.9999999999844 	1.715959186590361e-12 	101324.9999999901
0.191441441441441 	299.9999999999792 	9.72816260797618e-13 	101324.9999999904
0.1939439439439434 	299.9999999999119 	2.608026728750604e-12 	101324.9999999905
0.196446446446446 	299.9999999999409 	1.29947542410177e-12 	101324.9999999904
0.1989489489489485 	299.9999999999688 	3.971242096418039e-12 	101324.9999999904
0.2014514514514509 	299.99999999998 	2.18331171480136e-12 	101324.9999999905
0.2039539539539535 	299.9999999999918 	4.131123721858957e-12 	101324.9999999905
0.2064564564564559 	299.9999999999561 	3.024285846427771e-12 	101324.9999999907
0.2089589589589585 	299.9999999999805 	3.378346357012659e-12 	101324.9999999906
0.211461461461461 	299.9999999999321 	3.43839518241185e-12 	101324.9999999905
0.2139639639639635 	299.9999999999799 	3.096941575831737e-12 	101324.9999999904
0.2164664664664659 	299.9999999999903 	3.841649998340204e-12 	101324.9999999904
0.2189689689689684 	299.9999999999879 	1.746287422398125e-12 	101324.9999999905
0.221471471471471 	299.9999999999908 	4.397130724430953e-12 	101324.9999999904
0.2239739739739735 	299.9999999999498 	2.014844791231011e-12 	101324.9999999904
0.226476476476476 	299.9999999999789 	3.819560711499481e-12 	101324.9999999904
0.2289789789789785 	299.9999999999974 	2.701078973870851e-12 	101324.9999999904
0.231481481481481 	299.9999999999859 	2.648947624850276e-12 	101324.9999999902
0.2339839839839835 	299.9999999999814 	2.881723593527033e-12 	101324.9999999899
0.236486486486486 	300.0000000000221 	1.833663867407306e-12 	101324.99999999
0.2389889889889885 	299.9999999999982 	3.030175985299954e-12 	101324.9999999901
0.241491491491491 	299.9999999999159 	1.301210312921636e-12 	101324.9999999902
0.2439939939939935 	299.9999999999816 	4.311723140533483e-12 	101324.9999999902
0.246496496496496 	299.9999999999886 	1.702051391232105e-12 	101324.9999999902
0.2489989989989985 	300.0000000000406 	2.43826724872692e-12 	101324.9999999902
0.251501501501501 	300.0000000000304 	1.307544364053257e-12 	101324.99999999
0.2540040040040035 	299.9999999999851 	7.04311289835366e-13 	101324.99999999
0.256506506506506 	300.0000000000259 	1.133041199323139e-12 	101324.9999999899
0.2590090090090086 	299.9999999999017 	1.469223919102411e-12 	101324.99999999
0.261511511511511 	300.0000000000006 	1.452484551892333e-12 	101324.9999999902
0.2640140140140135 	299.9999999999887 	1.724469775074233e-12 	101324.9999999902
0.2665165165165161 	299.9999999999271 	1.239557715774575e-12 	101324.9999999904
0.2690190190190185 	300.000000000007 	3.670999986553371e-13 	101324.9999999904
0.271521521521521 	300.0000000000094 	7.975838671540168e-13 	101324.9999999905
0.2740240240240235 	300.0000000000165 	8.408945953758754e-13 	101324.9999999906
0.276526526526526 	300.0000000000049 	1.969144653141896e-13 	101324.9999999905
0.2790290290290286 	299.9999999999329 	1.35087743505612e-12 	101324.9999999906
0.281531531531531 	299.9999999999245 	4.904846002229762e-13 	101324.9999999906
0.2840340340340335 	299.9999999999786 	2.325626656006828e-12 	101324.9999999907
0.2865365365365361 	299.9999999999551 	1.495349135383264e-12 	101324.9999999907
0.2890390390390385 	299.9999999999972 	2.029034445365428e-12 	101324.9999999908
0.291541541541541 	299.9999999999977 	2.01194029121619e-12 	101324.9999999908
0.2940440440440436 	299.9999999999889 	9.563066778255317e-13 	101324.9999999906
0.296546546546546 	299.9999999999913 	2.056031009457577e-12 	101324.9999999905
0.2990490490490486 	299.9999999999349 	1.712863168405858e-12 	101324.9999999904
0.3015515515515511 	300.0000000000354 	3.00308350684694e-12 	101324.9999999903
0.3040540540540535 	299.9999999999956 	3.309340477598953e-12 	101324.9999999903
0.3065565565565562 	299.999999999998 	4.065583407062852e-12 	101324.9999999902
0.3090590590590585 	299.9999999999891 	2.229245033816501e-12 	101324.9999999902
0.3115615615615611 	299.9999999999359 	4.133995025220995e-12 	101324.9999999901
0.3140640640640635 	300.0000000000019 	7.540012384653651e-13 	101324.9999999901
0.316566566566566 	299.9999999999893 	3.993637940129807e-12 	101324.9999999902
0.3190690690690687 	299.9999999999519 	1.272254219664312e-12 	101324.9999999905
0.3215715715715711 	300.0000000000168 	4.234646070876715e-12 	101324.9999999905
0.3240740740740735 	299.9999999999986 	1.544159975574786e-12 	101324.9999999906
0.326576576576576 	299.9999999998979 	3.066683090323683e-12 	101324.9999999906
0.3290790790790786 	300.0000000000088 	8.811289241999483e-13 	101324.9999999906
0.3315815815815811 	300.0000000000325 	1.558269297855154e-12 	101324.9999999906
0.3340840840840836 	299.9999999999852 	4.181881026203411e-13 	101324.9999999906
0.3365865865865861 	300.000000000055 	1.30949824464148e-12 	101324.9999999905
0.3390890890890886 	300.0000000000495 	3.365200580047377e-13 	101324.9999999906
0.3415915915915911 	300.0000000000026 	1.076463525623311e-12 	101324.9999999907
0.3440940940940935 	299.9999999999521 	1.04362509403576e-12 	101324.9999999906
0.3465965965965962 	300.000000000033 	6.609708374185567e-13 	101324.9999999903
0.3490990990990985 	300.0000000000254 	6.095639400909212e-13 	101324.99999999
0.3516016016016011 	299.999999999983 	2.117040172795682e-13 	101324.99999999
0.3541041041041035 	300.0000000000058 	2.132322797953447e-13 	101324.9999999899
0.3566066066066061 	299.9999999999543 	1.216957937301876e-12 	101324.9999999899
0.3591091091091085 	299.9999999999207 	1.136221222277459e-12 	101324.9999999898
0.3616116116116112 	299.9999999999355 	1.626256708909888e-12 	101324.9999999898
0.3641141141141137 	299.9999999999282 	2.298688727000455e-12 	101324.9999999897
0.3666166166166161 	299.9999999999209 	2.021131568381917e-12 	101324.9999999896
0.3691191191191185 	300.0000000000414 	3.297331182086655e-12 	101324.9999999898
0.371621621621621 	300.0000000000147 	2.290986232427852e-12 	101324.9999999898
0.3741241241241237 	300.0000000000476 	1.914933231599697e-12 	101324.9999999901
0.3766266266266261 	300.0000000000255 	2.253471106298502e-12 	101324.9999999902
0.3791291291291286 	299.9999999999821 	8.984957993774186e-13 	101324.9999999902
0.3816316316316311 	299.999999999917 	2.062833701738876e-12 	101324.9999999903
0.3841341341341336 	300.0000000000103 	1.20368499406762e-12 	101324.9999999903
0.3866366366366362 	299.9999999999978 	1.260295929641569e-12 	101324.9999999903
0.3891391391391387 	299.9999999999589 	1.20361367162026e-12 	101324.9999999903
0.391641641641641 	299.9999999999939 	6.289422190754829e-13 	101324.9999999903
0.3941441441441436 	300.0000000000093 	9.460167936193574e-13 	101324.9999999901
0.3966466466466462 	300.0000000000007 	1.219519807818239e-12 	101324.9999999901
0.3991491491491486 	299.9999999999499 	3.876574801349067e-13 	101324.99999999
0.4016516516516512 	299.9999999999145 	1.437958741782285e-12 	101324.9999999899
0.4041541541541536 	299.999999999945 	1.270283441771305e-12 	101324.9999999901
0.4066566566566561 	299.9999999999459 	9.582981546315644e-13 	101324.9999999903
0.4091591591591587 	299.9999999999947 	1.250445611376897e-12 	101324.9999999905
0.4116616616616612 	300.0000000000094 	2.836204468718568e-13 	101324.9999999906
0.4141641641641635 	300.0000000000402 	8.664229616686406e-14 	101324.9999999906
0.4166666666666662 	299.9999999999948 	2.913447212856607e-13 	101324.9999999905
0.4191691691691687 	299.9999999999372 	1.1755535901126e-12 	101324.9999999904
0.421671671671671 	300.0000000000111 	1.503655435252556e-12 	101324.9999999902
0.4241741741741737 	299.9999999999762 	3.613531536966638e-12 	101324.9999999902
0.4266766766766761 	299.9999999999496 	1.210864384171373e-12 	101324.99999999
0.4291791791791785 	300.000000000019 	4.665862438678843e-12 	101324.9999999897
0.4316816816816812 	300.0000000000109 	1.520382449087322e-12 	101324.9999999893
0.4341841841841836 	299.999999999983 	7.929198790053647e-12 	101324.9999999884
0.4366866866866862 	299.9999999999148 	8.041914776019182e-12 	101324.9999999867
0.4391891891891885 	299.9999999999788 	1.872214530944205e-11 	101324.9999999836
0.4416916916916913 	299.9999999999711 	3.265308739259508e-11 	101324.999999977
0.4441941941941936 	299.9999999999668 	6.655410054437567e-11 	101324.999999964
0.4466966966966961 	299.9999999998699 	1.284682507763708e-10 	101324.9999999388
0.4491991991991987 	299.9999999998934 	2.52813869573926e-10 	101324.99999989
0.4517017017017012 	299.999999999814 	4.903933342181408e-10 	101324.9999997962
0.4542042042042035 	299.9999999996679 	9.449580042386348e-10 	101324.9999996166
0.4567067067067062 	299.999999999393 	1.806798169279733e-09 	101324.9999992759
0.4592092092092087 	299.9999999987775 	3.429121837610957e-09 	101324.9999986341
0.4617117117117112 	299.9999999978565 	6.461619356294281e-09 	101324.999997434
0.4642142142142137 	299.9999999959149 	1.208843142705579e-08 	101324.999995206
0.4667167167167162 	299.9999999924697 	2.244899661331432e-08 	101324.9999911008
0.4692192192192187 	299.9999999860873 	4.138268100456413e-08 	101324.999983593
0.4717217217217212 	299.9999999746182 	7.571905223819077e-08 	101324.9999699685
0.4742242242242236 	299.9999999538085 	1.375048912239728e-07 	101324.999945435
0.4767267267267262 	299.9999999167565 	2.478050113642296e-07 	101324.9999016069
0.4792292292292287 	299.9999998510967 	4.431348590402096e-07 	101324.9998239383
0.4817317317317312 	299.9999997356487 	7.862130735266199e-07 	101324.9996874246
0.4842342342342336 	299.9999995343378 	1.383779191403321e-06 	101324.9994494789
0.4867367367367362 	299.9999991864723 	2.415773264468667e-06 	101324.999038253
0.4892392392392387 	299.9999985906044 	4.182595673909199e-06 	101324.9983337038
0.4917417417417412 	299.9999975785731 	7.180768022549857e-06 	101324.9971372593
0.4942442442442437 	299.9999958753873 	1.222256134856612e-05 	101324.9951237995
0.4967467467467462 	299.9999930357176 	2.062282311455392e-05 	101324.9917666107
0.4992492492492487 	299.9999883454865 	3.448678401861257e-05 	101324.9862216375
0.5017517517517511 	299.9999806734753 	5.714738585301793e-05 	101324.9771514438
0.5042542542542537 	299.999968247855 	9.38199157796953e-05 	101324.9624613905
0.5067567567567562 	299.9999483271319 	0.0001525667847564424 	101324.9389104056
0.5092592592592589 	299.9999167224939 	0.0002456955902924293 	101324.9015462653
0.5117617617617611 	299.9998671169271 	0.0003917487841638269 	101324.8429009042
0.5142642642642637 	299.9997901144238 	0.0006182800628341893 	101324.7518660394
0.5167667667667663 	299.9996719390747 	0.0009656455012894819 	101324.6121556158
0.5192692692692688 	299.999492699073 	0.001492056590549789 	101324.4002532358
0.5217717717717714 	299.9992241313805 	0.002280132167873889 	101324.0827460169
0.5242742742742736 	299.998826763694 	0.003445125430045733 	101323.61297012
0.5267767767767763 	299.9982464786636 	0.005144861479166728 	101322.9269491709
0.5292792792792789 	299.9974105493841 	0.007591167523642737 	101321.9387088906
0.5317817817817813 	299.996223354845 	0.01106217556891375 	101320.5352140035
0.5342842842842837 	299.994562181393 	0.01591429992871206 	101318.5714087719
0.5367867867867864 	299.9922737796311 	0.02259192958108108 	101315.8661542429
0.5392892892892888 	299.9891726670591 	0.03163195979020635 	101312.2002320247
0.5417917917917912 	299.9850425058102 	0.04365930639259209 	101307.3179905294
0.5442942942942938 	299.9796421992863 	0.05936866928288753 	101300.9345766554
0.5467967967967964 	299.9727185399786 	0.07948729810232968 	101292.7509173389
0.5492992992992988 	299.9640271847714 	0.1047137090904645 	101282.4785487485
0.5518018018018012 	299.9533633021823 	0.1356286041357392 	101269.8758713419
0.5543043043043039 	299.9406022842919 	0.1725770330720459 	101254.7962778019
0.5568068068068063 	299.9257493531739 	0.2155253866455456 	101237.2467462307
0.5593093093093087 	299.9089946993782 	0.2639031674837165 	101217.4528933219
0.5618118118118114 	299.8907680208205 	0.3164484917893229 	101195.9232201735
0.5643143143143137 	299.871781050314 	0.3710966699525715 	101173.4990672712
0.5668168168168163 	299.8530304738535 	0.4249918696516024 	101151.3577283651
0.5693193193193188 	299.8357211767715 	0.4747064644300603 	101130.921544015
0.5718218218218213 	299.8211124876289 	0.5166670101125984 	101113.6763098146
0.5743243243243239 	299.8103234765376 	0.547701961601653 	101100.9416759593
0.5768268268268262 	299.8041332982502 	0.5656075250110237 	101093.635807101
0.5793293293293288 	299.8028114319789 	0.5696321455692308 	101092.0751190478
0.5818318318318314 	299.8060064863326 	0.5607859569979921 	101095.8454200601
0.5843343343343338 	299.8127282010174 	0.5418903717966148 	101103.7814612884
0.5868368368368363 	299.8214450066619 	0.5173339076636528 	101114.0709736266
0.5893393393393387 	299.8302590652137 	0.4924924499073315 	101124.4757933242
0.5918418418418413 	299.8372577410292 	0.4727261479000757 	101132.7378891639
0.5943443443443439 	299.8409959648357 	0.4620589157341012 	101137.1511577176
0.5968468468468463 	299.8409270616402 	0.4620318494081624 	101137.0704288498
0.5993493493493487 	299.837553842603 	0.4712711390786165 	101133.0876248146
0.6018518518518514 	299.8322591999756 	0.4859166563451938 	101126.8357022352
0.6043543543543537 	299.826913991691 	0.5007416696714785 	101120.5257817707
0.6068568568568564 	299.8233206217806 	0.5107655863097502 	101116.2839698022
0.6093593593593587 	299.8225735758894 	0.5129618716342215 	101115.4017385543
0.6118618618618614 	299.824663903862 	0.5073215513754195 	101117.8690910822
0.6143643643643638 	299.8285298853241 	0.4967463795556668 	101122.4341132227
0.6168668668668662 	299.8325003237748 	0.4858433271172127 	101127.1213107329
0.6193693693693688 	299.8349545914822 	0.4790429822380323 	101130.018742776
0.6218718718718714 	299.8350297681723 	0.4787066547487431 	101130.108038422
0.6243743743743737 	299.8329976278746 	0.4841259394213875 	101127.7091857968
0.6268768768768762 	299.8300850831413 	0.4919809091020387 	101124.2699563334
0.629379379379379 	299.8278544112343 	0.4980343950402179 	101121.6362960632
0.6318818818818812 	299.8274181307405 	0.4992795577061044 	101121.1210005194
0.6343843843843838 	299.8288634671936 	0.4954525362429847 	101122.8269008178
0.6368868868868864 	299.8312601793244 	0.4890288362255381 	101125.657035714
0.6393893893893888 	299.8332277526097 	0.4837148596427936 	101127.9799143044
0.6418918918918912 	299.8337305831415 	0.4822823859863348 	101128.5735611106
0.6443943943943939 	299.832684146275 	0.4849802640139224 	101127.3382980084
0.6468968968968963 	299.8309568311022 	0.4895224365555998 	101125.2986564475
0.6493993993993988 	299.8297726378099 	0.4926639087177243 	101123.9006651968
0.6519019019019012 	299.8299076086844 	0.4923447823474767 	101124.0598034386
0.6544044044044038 	299.8311920105135 	0.4889830110730893 	101125.576221753
0.6569069069069065 	299.8326889107344 	0.485027384559742 	101127.3437633647
0.6594094094094087 	299.833392035358 	0.4831203798765694 	101128.1740032564
0.6619119119119113 	299.8329495111256 	0.4841990842094096 	101127.651535098
0.664414414414414 	299.8318853747095 	0.4869215786523053 	101126.3948499361
0.6669169169169162 	299.8311453633714 	0.4888340841814519 	101125.5212552988
0.6694194194194188 	299.8313428029261 	0.4883386372246797 	101125.7539174685
0.6719219219219214 	299.8322913515539 	0.4858890557812408 	101126.8740114145
0.674424424424424 	299.8332166302824 	0.4834694888970283 	101127.9667572514
0.6769269269269262 	299.8334340394464 	0.4828461506035835 	101128.2234226807
0.679429429429429 	299.8329193972335 	0.4841004611564435 	101127.6158578453
0.6819319319319311 	299.8322830113968 	0.4856911140301071 	101126.8644079997
0.6844344344344341 	299.8321842825268 	0.4859368894827362 	101126.7475981219
0.686936936936936 	299.8327356100286 	0.4845330013185113 	101127.3984238598
0.6894394394394392 	299.833442541814 	0.4827125907542917 	101128.2333058106
0.6919419419419413 	299.8337148280874 	0.481968144856284 	101128.5547302644
0.694444444444444 	299.8334331547222 	0.4826152467151239 	101128.2222990418
0.6969469469469463 	299.8330285057013 	0.4835907247742218 	101127.7444768622
0.6994494494494489 	299.8330092102564 	0.4836222247909886 	101127.7215718297
0.7019519519519515 	299.8334436902595 	0.4825223037182885 	101128.2344401265
0.7044544544544538 	299.8339286619648 	0.4812781676537439 	101128.807110995
0.7069569569569564 	299.83405077934 	0.4809172812301125 	101128.9513915112
0.7094594594594589 	299.8338243160231 	0.4814205014095507 	101128.6840259721
0.7119619619619615 	299.8336377582934 	0.4818436168311447 	101128.4635652946
0.7144644644644638 	299.8337934758455 	0.4814378847716251 	101128.6474386462
0.7169669669669665 	299.8341799745224 	0.4804600851569634 	101129.1038283411
0.7194694694694688 	299.8344374480379 	0.4797812994808831 	101129.4077430693
0.7219719719719715 	299.8343937274918 	0.4798283476202636 	101129.3562695837
0.7244744744744737 	299.8342476376312 	0.480134651310327 	101129.183647178
0.7269769769769764 	299.8342961461984 	0.4799841273288682 	101129.2407737936
0.7294794794794791 	299.8345680962979 	0.4792944949772834 	101129.561996657
0.7319819819819813 	299.8348169243129 	0.4786481949563959 	101129.8558485194
0.7344844844844839 	299.8348534099058 	0.4785025231278711 	101129.8987816531
0.7369869869869864 	299.8347766269505 	0.4786325847929886 	101129.8081999782
0.739489489489489 	299.8348182862781 	0.4784927466586426 	101129.8572854698
0.7419919919919914 	299.8350288701326 	0.4779537155860261 	101130.105916946
0.7444944944944939 	299.8352320784865 	0.4774225240034705 	101130.3459140135
0.7469969969969963 	299.8352830921984 	0.4772433706938101 	101130.4060277302
0.7494994994994989 	299.8352589503179 	0.4772452168239926 	101130.3775172878
0.7520020020020015 	299.8353292944681 	0.4770347106683253 	101130.4606972081
0.7545045045045039 	299.8355122396466 	0.4765623580344744 	101130.6765472454
0.7570070070070062 	299.8356662706182 	0.4761491684023226 	101130.8583564938
0.7595095095095092 	299.8357087721396 	0.4759897674705744 	101130.9087382381
0.7620120120120112 	299.835727480697 	0.475891185635952 	101130.9307364761
0.7645145145145138 	299.8358328565257 	0.4755995463170125 	101131.0549316386
0.7670170170170165 	299.8359935910999 	0.4751779936627735 	101131.2448730277
0.7695195195195191 	299.8361007612087 	0.4748728567403644 	101131.3714499209
0.7720220220220213 	299.8361400133281 	0.474722175503301 	101131.4177061992
0.7745245245245239 	299.836201922002 	0.4745254874783349 	101131.4907726059
0.7770270270270263 	299.8363299370032 	0.4741816148189682 	101131.6419485991
0.779529529529529 	299.8364588302998 	0.4738316835107007 	101131.7941509811
0.7820320320320313 	299.8365309829086 	0.4736059873399294 	101131.8792179672
0.784534534534534 	299.8365865626968 	0.4734197549111769 	101131.9449078907
0.7870370370370364 	299.836686777456 	0.4731379403946725 	101132.0633028165
0.7895395395395389 	299.8368117492108 	0.4728001301098693 	101132.2106856556
0.7920420420420413 	299.8369035355999 	0.4725317316744426 	101132.3190700644
0.794544544544544 	299.8369674281631 	0.4723251029221582 	101132.3946886068
0.7970470470470463 	299.8370548140928 	0.4720710004111419 	101132.4976251344
0.799549549549549 	299.8371694723194 	0.471757050479035 	101132.6329486032
0.8020520520520515 	299.8372679579595 	0.4714748928321446 	101132.7495038153
0.8045545545545539 	299.8373413234305 	0.4712477060618229 	101132.8359135243
0.8070570570570563 	299.8374252450941 	0.471000007129203 	101132.9349345679
0.8095595595595589 	299.8375316100112 	0.4707043089334365 	101133.0606681394
0.8120620620620614 	299.8376306156956 	0.4704226571447339 	101133.177490154
0.8145645645645638 	299.8377098389086 	0.4701825240764801 	101133.2709733288
0.8170670670670666 	299.837794536941 	0.4699324363421823 	101133.3710347926
0.8195695695695689 	299.837896136949 	0.469647540188997 	101133.4909219521
0.8220720720720714 	299.837992869414 	0.4693712403606159 	101133.6051238475
0.8245745745745739 	299.8380753154314 	0.4691243590161983 	101133.7024951147
0.8270770770770765 	299.8381623160446 	0.4688695982879221 	101133.8051409704
0.8295795795795788 	299.8382609400198 	0.4685908837447329 	101133.9216299061
0.8320820820820815 	299.8383548809395 	0.4683207288502381 	101134.0325578869
0.834584584584584 	299.8384392598034 	0.4680701719370584 	101134.1321383907
0.8370870870870865 	299.8385284989278 	0.4678107714819466 	101134.2374794557
0.8395895895895891 	299.8386250902687 	0.4675364098202993 	101134.3515621992
0.8420920920920915 	299.8387164838315 	0.4672718237726255 	101134.4594204019
0.844594594594594 	299.8388023339561 	0.4670185542691093 	101134.5607531518
0.8470970970970964 	299.838893495733 	0.4667555142348104 	101134.6683403443
0.8495995995995991 	299.8389880802401 	0.4664852131667467 	101134.7800803284
0.8521021021021015 	299.8390773170938 	0.466224898690327 	101134.8855420041
0.8546046046046039 	299.839164990442 	0.4659687801466731 	101134.9887934692
0.8571071071071066 	299.8392572140164 	0.4657037136036031 	101135.0977203752
0.8596096096096089 	299.8393494601595 	0.4654378163637595 	101135.2068750835
0.8621121121121116 	299.8394378700876 	0.4651799398050853 	101135.3110435644
0.8646146146146139 	299.8395271577714 	0.4649207520800359 	101135.416337834
0.8671171171171166 	299.8396192410649 	0.4646556631298137 	101135.5253121677
0.8696196196196189 	299.8397096848321 	0.4643940079868652 	101135.6319798605
0.8721221221221216 	299.8397980646751 	0.4641364795328778 	101135.7362194908
0.874624624624624 	299.8398884749765 	0.4638749758469614 	101135.8431367537
0.8771271271271264 	299.8399798373664 	0.4636119241125572 	101135.9509268058
0.879629629629629 	299.8400689170144 	0.4633531286016593 	101136.0559733454
0.8821321321321317 	299.8401579624699 	0.4630942098992338 	101136.1612600547
0.8846346346346339 	299.8402488980966 	0.4628321927583026 	101136.2685776169
0.8871371371371364 	299.8403387615585 	0.4625720178164665 	101136.3746334471
0.8896396396396391 	299.8404274747342 	0.4623139447821446 	101136.4794310913
0.8921421421421414 	299.8405176463577 	0.462053772511824 	101136.5857517203
0.8946446446446441 	299.8406077599901 	0.461793308220848 	101136.6922237621
0.8971471471471464 	299.8406966118876 	0.4615350996581423 	101136.7971828441
0.8996496496496489 	299.8407860544263 	0.4612762878786301 	101136.9026458314
0.9021521521521517 	299.8408760184657 	0.4610162952905655 	101137.0089335494
0.9046546546546541 	299.8409651217259 	0.4607578775444222 	101137.1141838237
0.9071571571571564 	299.8410541759744 	0.4604999656011795 	101137.2191965618
0.9096596596596589 	299.841143780783 	0.4602408644657547 	101137.3250663577
0.9121621621621616 	299.841233030117 	0.4599823929084174 	101137.4304539115
0.9146646646646639 	299.8413219178139 	0.4597248399642771 	101137.5352608062
0.9171671671671666 	299.8414111170829 	0.4594666463995464 	101137.6406772706
0.9196696696696689 	299.8415002711028 	0.4592085883836996 	101137.74602117
0.9221721721721714 	299.8415892273789 	0.4589513509957861 	101137.8507530241
0.9246746746746741 	299.8416780757794 	0.4586938006382724 	101137.95581107
0.9271771771771765 	299.8417670230041 	0.458436207959131 	101138.060985921
0.9296796796796791 	299.8418558443984 	0.4581793505067711 	101138.1656322509
0.9321821821821816 	299.8419445821677 	0.457922370041398 	101138.2703974116
0.9346846846846838 	299.8420333492486 	0.4576652387346881 	101138.3753507599
0.9371871871871866 	299.8421219941765 	0.4574087654886753 	101138.4799048142
0.9396896896896891 	299.8422105933689 	0.4571523542904417 	101138.5844570888
0.9421921921921914 	299.8422992576435 	0.4568957583748572 	101138.6891803918
0.9446946946946939 	299.8423877206712 	0.4566396686028053 	101138.793595101
0.9471971971971965 	299.8424760587159 	0.4563837331227055 	101138.8979465497
0.9496996996996991 	299.8425645562536 	0.456127696498574 	101139.0024360461
0.9522022022022016 	299.8426529715605 	0.4558720829783934 	101139.1066946872
0.9547047047047038 	299.8427411125934 	0.4556166279158437 	101139.21087687
0.9572072072072064 	299.8428294285035 	0.4553610746501713 	101139.3151535387
0.9597097097097093 	299.8429176912301 	0.4551058293841629 	101139.4192351696
0.9622122122122114 	299.8430057315168 	0.4548507920323192 	101139.5232359134
0.964714714714714 	299.8430938008926 	0.4545958042765319 	101139.6272972912
0.9672172172172167 	299.8431819428387 	0.4543411239734179 	101139.7312016805
0.969719719719719 	299.8432698553477 	0.4540866067464382 	101139.8350419042
0.9722222222222214 	299.8433577376127 	0.4538320945473698 	101139.9389058575
0.9747247247247239 	299.8434457386063 	0.4535778349494071 	101140.0426210054
0.9772272272272267 	299.8435335215443 	0.4533237308508052 	101140.1462817416
0.9797297297297292 	299.8436211775447 	0.453069660767311 	101140.2499420193
0.9822322322322313 	299.8437089706274 	0.4528158878567367 	101140.3534740239
0.9847347347347344 	299.8437967100862 	0.4525623565031308 	101140.4569673897
0.9872372372372363 	299.8438842062493 	0.4523088499285791 	101140.5604330373
0.9897397397397389 	299.8439718078974 	0.4520554434850931 	101140.6637803167
0.9922422422422417 	299.8440593744946 	0.4518022588348857 	101140.7670943379
0.9947447447447441 	299.8441467725164 	0.4515493068001944 	101140.8703596821
0.9972472472472468 	299.8442342130043 	0.4512964930388195 	101140.9735282372
0.999749749749749 	299.8443215485837 	0.4510437717253608 	101141.0766695725
1.002252252252252 	299.8444087449712 	0.4507912453414847 	101141.1797424818
1.004754754754754 	299.8444961392882 	0.4505389055660045 	101141.2827325137
1.007257257257256 	299.8445833725035 	0.4502866873740151 	101141.3856921053
1.009759759759759 	299.84467031761 	0.4500346929687037 	101141.4885758857
1.012262262262261 	299.844757539879 	0.4497828694060196 	101141.591393378
1.014764764764764 	299.8448447087625 	0.449531093242158 	101141.6941672273
1.017267267267267 	299.8449315254926 	0.4492795145112179 	101141.7968605736
1.019769769769769 	299.8450184862589 	0.4490281343621966 	101141.8995006815
1.022272272272272 	299.8451054919204 	0.448776904841394 	101142.0020864021
1.024774774774774 	299.8451921681568 	0.4485259246301639 	101142.1045977815
1.027277277277277 	299.8452789600424 	0.44827506951239 	101142.2070606246
1.029779779779779 	299.8453658216255 	0.4480242658890473 	101142.3094568277
1.032282282282282 	299.8454524444971 	0.4477736120482042 	101142.4117872503
1.034784784784784 	299.8455390419676 	0.4475232331943589 	101142.5140692929
1.037287287287286 	299.8456256794348 	0.4472731048743227 	101142.6162847575
1.039789789789789 	299.8457121962724 	0.447023015134289 	101142.7184450558
1.042292292292291 	299.8457986188108 	0.4467730455171404 	101142.8205477263
1.044794794794794 	299.8458851234915 	0.4465234112590432 	101142.9225809403
1.047297297297296 	299.8459715310173 	0.4462739555587197 	101143.0245565538
1.049799799799799 	299.8460577315342 	0.446024516786163 	101143.1264668751
1.052302302302302 	299.8461441136077 	0.4457752291966281 	101143.2283188879
1.054804804804804 	299.8462304148158 	0.4455261715531017 	101143.3301188223
1.057307307307306 	299.8463163798966 	0.4452773166943895 	101143.4318563149
1.059809809809809 	299.8464025857207 	0.4450286097001454 	101143.5335360776
1.062312312312312 	299.8464887796508 	0.4447800879874662 	101143.6351523931
1.064814814814814 	299.8465746957407 	0.4445318005756048 	101143.7367067401
1.067317317317317 	299.8466606510738 	0.4442836323066698 	101143.8382053688
1.069819819819819 	299.8467466404832 	0.4440355936412417 	101143.9396425943
1.072322322322321 	299.846832483923 	0.4437877842278598 	101144.0410207506
1.074824824824824 	299.8469182380134 	0.4435401151514015 	101144.1423353815
1.077327327327327 	299.8470040802372 	0.4432925908262982 	101144.243587744
1.079829829829829 	299.8470898481819 	0.4430454067143093 	101144.3447842039
1.082332332332332 	299.8471753958189 	0.4427985059236559 	101144.4459240262
1.084834834834834 	299.8472611225665 	0.4425516716064552 	101144.5470103631
1.087337337337337 	299.8473468021544 	0.442304842564807 	101144.6480370332
1.089839839839839 	299.8474321548458 	0.4420582549172489 	101144.7489990383
1.092342342342342 	299.8475176354394 	0.4418120758416063 	101144.8498965516
1.094844844844844 	299.8476031209029 	0.4415660114437101 	101144.9507321275
1.097347347347347 	299.8476884383664 	0.4413199703618175 	101145.051513032
1.099849849849849 	299.8477736301072 	0.4410741945868688 	101145.1522378868
1.102352352352352 	299.8478590303822 	0.440828707308862 	101145.2529055763
1.104854854854854 	299.8479443727482 	0.4405834254275958 	101145.353515169
1.107357357357357 	299.8480293881826 	0.4403382820816364 	101145.45406601
1.109859859859859 	299.8481145186187 	0.4400933192613991 	101145.5545587798
1.112362362362362 	299.8481997005929 	0.4398486365958132 	101145.6549904498
1.114864864864865 	299.8482847036018 	0.4396040812171516 	101145.7553615737
1.117367367367367 	299.8483696018982 	0.439359644303339 	101145.8556731261
1.119869869869869 	299.8484545797515 	0.4391155839946517 	101145.9559278069
1.122372372372372 	299.8485394968557 	0.4388718263856026 	101146.0561274452
1.124874874874874 	299.8486242167516 	0.4386281561055876 	101146.1562707854
1.127377377377377 	299.8487090752891 	0.4383845501500021 	101146.2563561934
1.129879879879879 	299.8487939009492 	0.4381411042864654 	101146.3563817801
1.132382382382382 	299.8488785064476 	0.4378980444612317 	101146.456348868
1.134884884884884 	299.8489630539816 	0.4376553387690586 	101146.5562571623
1.137387387387387 	299.849047647777 	0.4374126876100732 	101146.6561058684
1.139889889889889 	299.8491322506062 	0.4371701908153675 	101146.7558961814
1.142392392392392 	299.8492167775001 	0.4369280259594672 	101146.8556323037
1.144894894894894 	299.8493012368991 	0.4366861415234768 	101146.9553182707
1.147397397397397 	299.8493856439011 	0.436444480565311 	101147.0549527438
1.149899899899899 	299.8494699972777 	0.4362029037858737 	101147.1545308442
1.152402402402402 	299.8495542559657 	0.4359616028080618 	101147.2540469171
1.154904904904904 	299.8496385689839 	0.4357207796543565 	101147.3534991373
1.157407407407407 	299.8497228316984 	0.4354801761857792 	101147.4528904948
1.159909909909909 	299.8498069381466 	0.4352396265873917 	101147.552228729
1.162412412412412 	299.849891047827 	0.4349992444782212 	101147.6515206319
1.164914914914914 	299.8499751203495 	0.4347591682485017 	101147.7507662552
1.167417417417417 	299.8500591607852 	0.4345194725559688 	101147.8499589758
1.169919919919919 	299.8501430993314 	0.4342801801650591 	101147.9490908524
1.172422422422422 	299.8502270472519 	0.4340410816911585 	101148.0481597431
1.174924924924925 	299.8503110459591 	0.4338020980391307 	101148.1471711607
1.177427427427427 	299.8503949598515 	0.4335634438448066 	101148.2461345994
1.179929929929929 	299.8504787295912 	0.433325032965059 	101148.3450547456
1.182432432432432 	299.8505624610686 	0.4330869500617172 	101148.4439273447
1.184934934934934 	299.8506462225123 	0.4328493492212421 	101148.5427436527
1.187437437437437 	299.8507300224109 	0.4326118763632725 	101148.6414993899
1.189939939939939 	299.850813619914 	0.4323745213431748 	101148.7401983882
1.192442442442442 	299.8508970078547 	0.4321375450893573 	101148.838849082
1.194944944944944 	299.8509806335769 	0.4319008787145072 	101148.9374570681
1.197447447447447 	299.8510643340601 	0.4316645653822007 	101149.0360213697
1.199949949949949 	299.8511479750078 	0.431428729427106 	101149.1345373276
1.202452452452452 	299.8512313868077 	0.4311930456207739 	101149.2330013983
1.204954954954955 	299.8513146360706 	0.430957555779982 	101149.3314139466
1.207457457457457 	299.8513980082381 	0.4307225117519617 	101149.4297788038
1.20995995995996 	299.8514814746912 	0.4304878761901534 	101149.5280997356
1.212462462462462 	299.8515648878556 	0.4302529260381558 	101149.6263765275
1.214964964964964 	299.8516483468267 	0.4300195061797387 	101149.7246082305
1.217467467467467 	299.8517316821397 	0.4297837895003588 	101149.8227940206
1.219969969969969 	299.8518147580693 	0.4295542568936017 	101149.9209403695
1.222472472472472 	299.8518979660978 	0.4293085804416608 	101150.0190392545
1.224974974974975 	299.8519812605856 	0.4291074448609086 	101150.1171232988
1.227477477477477 	299.8520645340318 	0.4287642963131131 	101150.2150975318
1.229979979979979 	299.852148114897 	0.4288371154544576 	101150.3133952874
1.232482482482482 	299.8522309016265 	0.427534252374219 	101150.4105043511
1.234984984984984 	299.8523139397264 	0.4288175590592906 	101150.5089793969
1.237487487487487 	299.8523993987471 	0.426822565417723 	101150.6066256292
1.239989989989989 	299.8524766345479 	0.4278913966907697 	101150.7023158743
1.242492492492492 	299.8525667384403 	0.4284416674980761 	101150.803923885
1.244994994994994 	299.850387393489 	0.4252879454987526 	101150.8982701651
1.247497497497497 	299.1913944709063 	0.4274327141480267 	101150.9968109685
1.249999999999999 	301.7262065765499 	0.4267351086107524 	101151.0956986012
