-1.25 	300 	0.1183454856659922 	101372.5528258148
-1.247497497497497 	300.0372056560668 	0.1111245440794449 	101370.4707938544
-1.244994994994995 	300.035471938008 	0.1017184288184012 	101366.9349583887
-1.242492492492492 	300.0319223947267 	0.09300557652709135 	101362.7395971895
-1.23998998998999 	300.0277579355945 	0.08019273097480289 	101357.8192153887
-1.237487487487487 	300.0230997538238 	0.06683395536302641 	101352.3110608845
-1.234984984984985 	300.0181132166252 	0.05233009247677341 	101346.4150855756
-1.232482482482482 	300.0127709067536 	0.03688555682648145 	101340.0986544561
-1.22997997997998 	300.0071840478562 	0.02073313936945451 	101333.493342735
-1.227477477477477 	300.0014850484552 	0.008173450643290871 	101326.7557882629
-1.224974974974975 	299.9957741811974 	0.01223288412837955 	101320.0045095241
-1.222472472472472 	299.9901053007825 	0.02866255695388542 	101313.303204119
-1.21996996996997 	299.9845704261514 	0.04466809261782916 	101306.7606223813
-1.217467467467467 	299.9793322404104 	0.059833767077389 	101300.5689789692
-1.214964964964965 	299.9744648680829 	0.07389878144029266 	101294.815883381
-1.212462462462462 	299.9700284899454 	0.08666908923847541 	101289.5723868974
-1.20995995995996 	299.9661635037613 	0.09784040554768336 	101285.0043924698
-1.207457457457457 	299.9629743148425 	0.1070704292159957 	101281.2352266035
-1.204954954954955 	299.9604816487866 	0.1142671384800872 	101278.2892797831
-1.202452452452452 	299.9587000842457 	0.1193931523885069 	101276.1837093654
-1.19994994994995 	299.957665928455 	0.1223663168184563 	101274.9614711164
-1.197447447447447 	299.957405628486 	0.1231500062915443 	101274.6538190884
-1.194944944944945 	299.9579283831965 	0.1216489274448431 	101275.271555605
-1.192442442442442 	299.959248717762 	0.1178078150148317 	101276.8318478632
-1.18993993993994 	299.9613636949974 	0.1116770222123606 	101279.3312333806
-1.187437437437437 	299.9642148674843 	0.103443342483758 	101282.7007580149
-1.184934934934935 	299.9677111860615 	0.09334756913433023 	101286.832839647
-1.182432432432432 	299.9717775748998 	0.08157345343118291 	101291.6388291103
-1.17992992992993 	299.9763383941024 	0.06836859902228996 	101297.0294055884
-1.177427427427427 	299.981311789211 	0.05396155685433437 	101302.9078210272
-1.174924924924925 	299.9866289414942 	0.03859489226175548 	101309.1928579925
-1.172422422422422 	299.9921923240661 	0.02258022931881275 	101315.7692380941
-1.16991991991992 	299.9978570258586 	0.00781363031173897 	101322.4657316555
-1.167417417417417 	300.0035419494739 	0.01027127618849144 	101329.1864712592
-1.164914914914915 	300.0091978075356 	0.02661177836844372 	101335.8731261638
-1.162412412412412 	300.0147230942932 	0.04259752518851273 	101342.4057628101
-1.15990990990991 	300.0200067419988 	0.05785100540991552 	101348.6529771733
-1.157407407407407 	300.0249307320726 	0.07207817565009426 	101354.4752265653
-1.154904904904904 	300.0293795764111 	0.08496031192460582 	101359.7358856834
-1.152402402402403 	300.0332699087843 	0.09620738877770903 	101364.3362482814
-1.1498998998999 	300.0365374340536 	0.1056564597782268 	101368.2002932174
-1.147397397397397 	300.0391369037761 	0.1131662967604835 	101371.2743915207
-1.144894894894895 	300.0410450790175 	0.1186507593576072 	101373.5310583496
-1.142392392392392 	300.0422159896625 	0.121996138378115 	101374.915877753
-1.13988988988989 	300.0426011860703 	0.1230992965171813 	101375.3714354041
-1.137387387387387 	300.042175814859 	0.1218654930188439 	101374.8684439699
-1.134884884884885 	300.0409288797791 	0.1182534570609613 	101373.3939185936
-1.132382382382382 	300.0388953233769 	0.1124144686075952 	101370.9891790262
-1.12987987987988 	300.0361634257044 	0.1045131564861447 	101367.75862046
-1.127377377377377 	300.032785765711 	0.094749828942855 	101363.7644687928
-1.124874874874875 	300.0288084137028 	0.083293423276351 	101359.0613241736
-1.122372372372372 	300.024303320841 	0.07023492881940994 	101353.7342783427
-1.11986986986987 	300.019345060164 	0.05585649726646421 	101347.8716420559
-1.117367367367367 	300.0140267172279 	0.04048290697482994 	101341.5835038104
-1.114864864864865 	300.0084844634329 	0.02444027150390469 	101335.0308757532
-1.112362362362362 	300.002809126142 	0.008077702991553836 	101328.3212344284
-1.10985985985986 	299.9970942503352 	0.00912444703822691 	101321.5651314709
-1.107357357357357 	299.9914035883212 	0.02493798225152941 	101314.8380073439
-1.104854854854855 	299.9858224715214 	0.04105556305807471 	101308.2406784705
-1.102352352352353 	299.9804957457533 	0.05644317285299041 	101301.9443018925
-1.09984984984985 	299.9755461188057 	0.07073890232132561 	101296.0939381219
-1.097347347347347 	299.9710663452345 	0.08368700475654757 	101290.7990929294
-1.094844844844845 	299.9671239653248 	0.09512317508638804 	101286.1396035002
-1.092342342342342 	299.9637670105093 	0.1048187731550616 	101282.1721380645
-1.08983983983984 	299.9610576122259 	0.1126140998847497 	101278.9700296463
-1.087337337337337 	299.9590722152816 	0.118324361914535 	101276.6235921207
-1.084834834834835 	299.9578667926362 	0.1217938642288627 	101275.1989087436
-1.082332332332332 	299.9574662637214 	0.1229733860899485 	101274.7255373211
-1.07982982982983 	299.9578685098124 	0.1218082013147422 	101275.2008897078
-1.077327327327327 	299.9590474159756 	0.1183813883550002 	101276.5940117345
-1.074824824824825 	299.9609792040812 	0.1127881390887854 	101278.8769252343
-1.072322322322323 	299.9636312026338 	0.1051354433069878 	101282.011043572
-1.06981981981982 	299.9669464726617 	0.09557319416786536 	101285.9291208307
-1.067317317317317 	299.9708661822131 	0.08421459393010437 	101290.5617359472
-1.064814814814815 	299.9753218748431 	0.07132724884058496 	101295.8279864045
-1.062312312312312 	299.9802188130961 	0.05716205196795221 	101301.61599117
-1.05980980980981 	299.985461918169 	0.04201240781082052 	101307.8134445802
-1.057307307307307 	299.9909439424915 	0.02620516497888669 	101314.2935806442
-1.054804804804805 	299.9965496084103 	0.009945623490591259 	101320.9202231081
-1.052302302302302 	300.0022183776018 	0.009012066684694169 	101327.6217672038
-1.0497997997998 	300.0078853695115 	0.02283190244690288 	101334.3215207942
-1.047297297297297 	300.013430485579 	0.03887758121159477 	101340.8775316414
-1.044794794794795 	300.018735059582 	0.05417678970437097 	101347.1494159672
-1.042292292292292 	300.0236862096939 	0.06849446181766215 	101353.0037248178
-1.03978978978979 	300.0282047715109 	0.08156665574265935 	101358.346742721
-1.037287287287287 	300.0322288772873 	0.09318382477765648 	101363.1052570368
-1.034784784784785 	300.035680224999 	0.1031713579785973 	101367.1866414174
-1.032282282282283 	300.038480679094 	0.1112639448430369 	101370.4983868966
-1.02977977977978 	300.0405829583659 	0.1173127755807375 	101372.9846029003
-1.027277277277277 	300.0419262503121 	0.1211753338339341 	101374.5732496232
-1.024774774774775 	300.0424794729162 	0.1227747914326332 	101375.2275449978
-1.022272272272272 	300.0422341395977 	0.1220738917865432 	101374.9374428903
-1.01976976976977 	300.0411926798785 	0.11904579830489 	101373.7058860646
-1.017267267267267 	300.0393774489999 	0.1138096067896584 	101371.5593470634
-1.014764764764765 	300.036845599902 	0.1064588945269728 	101368.5653336928
-1.012262262262262 	300.0336258499917 	0.09717046702516548 	101364.7579089699
-1.00975975975976 	300.0297873925487 	0.08611822713540236 	101360.2189749578
-1.007257257257257 	300.0254059401204 	0.07342095026513352 	101355.0380811487
-1.004754754754755 	300.0205578672709 	0.05937171534451494 	101349.3056826004
-1.002252252252252 	300.0153232032659 	0.04424353146186559 	101343.1164091142
-0.9997497497497498 	300.0098182705269 	0.02831439351516792 	101336.6078520962
-0.9972472472472473 	300.0041255039778 	0.01192604067116184 	101329.8775340041
-0.9947447447447449 	299.9983844959544 	0.008946422803781124 	101323.0904712616
-0.9922422422422421 	299.9926763578736 	0.02125979118646689 	101316.3426078844
-0.9897397397397399 	299.9870861649092 	0.03740659036286476 	101309.7344709775
-0.9872372372372376 	299.9817327908904 	0.05288473125100463 	101303.4065511862
-0.9847347347347346 	299.9767113995817 	0.06737758305041198 	101297.4712968718
-0.9822322322322323 	299.9721113604256 	0.0806595822113709 	101292.0342772904
-0.9797297297297296 	299.968013575857 	0.09252187167643233 	101287.1910678395
-0.9772272272272275 	299.9644964902998 	0.1026474052711152 	101283.0343100856
-0.9747247247247248 	299.9616468703592 	0.1108751051865921 	101279.6664912769
-0.9722222222222224 	299.9595307071208 	0.1169869659792058 	101277.1655022986
-0.9697197197197196 	299.9581819738905 	0.1208874323148227 	101275.571454861
-0.9672172172172175 	299.9576164059537 	0.122559452838513 	101274.9030324927
-0.9647147147147147 	299.9578325777283 	0.1219207454330929 	101275.1584696147
-0.9622122122122124 	299.9588213676262 	0.1190469033278878 	101276.3269434393
-0.9597097097097099 	299.9605756814148 	0.1139566844608044 	101278.4001002308
-0.9572072072072073 	299.9630612444794 	0.1067667505413342 	101281.3375144991
-0.9547047047047047 	299.9662227375635 	0.09763178917551792 	101285.0738384157
-0.9522022022022023 	299.9700029083639 	0.08667407097054228 	101289.5414747933
-0.9496996996996998 	299.9743303999063 	0.07417093248091226 	101294.65618163
-0.9471971971971973 	299.9791199164681 	0.06030776417146235 	101300.3171659276
-0.9446946946946947 	299.984286099453 	0.04539245083454647 	101306.4236265559
-0.9421921921921923 	299.9897157107631 	0.02973476229583831 	101312.8417562192
-0.93968968968969 	299.9952926230154 	0.01357560734401503 	101319.4343140051
-0.9371871871871872 	300.0009270857527 	0.008301783203782206 	101326.0952427712
-0.9346846846846848 	300.0065466707036 	0.01897813268950525 	101332.738884887
-0.9321821821821823 	300.0120622542529 	0.03495306046085105 	101339.2598880538
-0.9296796796796799 	300.0173859138477 	0.05031036757975543 	101345.554280996
-0.9271771771771771 	300.0224133716839 	0.06484698731194052 	101351.4987217996
-0.9246746746746748 	300.0270571799756 	0.07824043650272589 	101356.9897843463
-0.9221721721721724 	300.0312214008718 	0.09027335314438917 	101361.9139526487
-0.9196696696696698 	300.0348156990069 	0.1006835209624982 	101366.1643291667
-0.9171671671671672 	300.0377687428236 	0.1092095543728594 	101369.6565214614
-0.9146646646646649 	300.0400369844617 	0.1157439208582474 	101372.3389539555
-0.9121621621621623 	300.0415623003894 	0.120135789950944 	101374.1428652181
-0.9096596596596597 	300.0423162471754 	0.1223231238189626 	101375.0345660201
-0.9071571571571573 	300.0422712993271 	0.1222080208953066 	101374.9814052823
-0.9046546546546547 	300.0414278048431 	0.1197519538223938 	101373.9839728386
-0.9021521521521524 	300.0398096244576 	0.1150598542461499 	101372.0704435874
-0.8996496496496498 	300.0374631914389 	0.1082361159439794 	101369.2956976668
-0.8971471471471473 	300.0344187408333 	0.09945711478721686 	101365.6955606102
-0.894644644644645 	300.0307402858072 	0.08884377792401907 	101361.3457813464
-0.892142142142142 	300.0264817436449 	0.07651883585392004 	101356.3102073905
-0.8896396396396397 	300.021717232226 	0.06272965462198787 	101350.6765504352
-0.8871371371371374 	300.0165382048199 	0.04776151353482307 	101344.5530013823
-0.8846346346346349 	300.0110662150759 	0.03195177141615711 	101338.0833387533
-0.8821321321321324 	300.0054098908516 	0.01565015806817734 	101331.396013903
-0.8796296296296297 	299.9996995406165 	0.007834791786170881 	101324.6451391004
-0.8771271271271271 	299.9939982291953 	0.01743656561407301 	101317.9052719238
-0.8746246246246248 	299.9883837264302 	0.03366752466186552 	101311.2683269712
-0.8721221221221224 	299.9829633074949 	0.04932720252094136 	101304.8610992584
-0.8696196196196196 	299.977847771741 	0.06407855896942515 	101298.8144909173
-0.8671171171171175 	299.9731413806907 	0.0776754226740736 	101293.2517295634
-0.8646146146146148 	299.9689294964509 	0.08986202949345437 	101288.2736367343
-0.8621121121121121 	299.9652890920205 	0.100351982291494 	101283.9711022418
-0.8596096096096097 	299.9623035478463 	0.1089781107595619 	101280.4426217493
-0.857107107107107 	299.96003434465 	0.1155235791783057 	101277.7607561886
-0.8546046046046049 	299.9585233199117 	0.1199062693826793 	101275.9749108272
-0.8521021021021022 	299.9577904801984 	0.1220579242915927 	101275.1088024127
-0.8495995995995997 	299.9578362913186 	0.1219149488080369 	101275.1629169123
-0.8470970970970974 	299.958652896619 	0.1195376951981257 	101276.1279105918
-0.8445945945945946 	299.9602332806209 	0.1149463944972886 	101277.9954951854
-0.8420920920920922 	299.9625403387313 	0.1082712641378464 	101280.7219542194
-0.8395895895895897 	299.9655315046028 	0.09961750903676166 	101284.2569551063
-0.8370870870870872 	299.9691592620106 	0.08911012402756786 	101288.5444420688
-0.8345845845845846 	299.9733599125997 	0.07697489654355953 	101293.5091837819
-0.8320820820820823 	299.9780486636371 	0.06341000189591994 	101299.0510010193
-0.8295795795795798 	299.983131371798 	0.04875364563786497 	101305.0587532749
-0.8270770770770772 	299.9884821141911 	0.03331151545627432 	101311.383581892
-0.8245745745745746 	299.9939940889623 	0.01735113013986941 	101317.8993175223
-0.8220720720720721 	299.9995778135153 	0.00672308476159706 	101324.5001867461
-0.8195695695695699 	300.0051693281333 	0.01500259978503886 	101331.1105474844
-0.817067067067067 	300.0106961658681 	0.03101127535992812 	101337.6447957667
-0.8145645645645651 	300.0160652741246 	0.04649193735176035 	101343.9928396855
-0.8120620620620621 	300.0211577029876 	0.0612285406599308 	101350.0140450836
-0.8095595595595597 	300.0258931591129 	0.07488894008009242 	101355.6134190776
-0.8070570570570572 	300.0301718574453 	0.08724057897016246 	101360.6728861668
-0.8045545545545546 	300.0339032656846 	0.09804369288597185 	101365.0853826283
-0.8020520520520523 	300.0370148919461 	0.1070105681085418 	101368.7650636465
-0.7995495495495494 	300.0394547317962 	0.1140369794617842 	101371.6504235501
-0.7970470470470474 	300.0411540476734 	0.1189652892170818 	101373.6600934505
-0.7945445445445446 	300.0420979322894 	0.1217053430017176 	101374.7764004859
-0.7920420420420423 	300.0422534638301 	0.1221774632371777 	101374.9603599095
-0.7895395395395397 	300.0416210666206 	0.1203232205411692 	101374.2125330135
-0.7870370370370371 	300.0402167920267 	0.1162424525795573 	101372.5519720832
-0.7845345345345348 	300.0380727981675 	0.1099937037205834 	101370.0166219001
-0.7820320320320323 	300.035197035489 	0.1017137968029999 	101366.6159442538
-0.7795295295295296 	300.0316612401373 	0.09149419658949641 	101362.4348531714
-0.7770270270270272 	300.0275120908145 	0.07946974698742316 	101357.5285730233
-0.7745245245245247 	300.022837150661 	0.06596198513348357 	101352.0007921838
-0.7720220220220222 	300.0177347856957 	0.05123239264778447 	101345.9678295148
-0.7695195195195199 	300.012324933773 	0.03561260654086572 	101339.5715584002
-0.767017017017017 	300.0067060291965 	0.01943142378242302 	101332.9284285703
-0.7645145145145147 	300.0010213986409 	0.005900767697562181 	101326.2078623909
-0.7620120120120122 	299.9953196461841 	0.01361710101943496 	101319.4674173298
-0.7595095095095097 	299.9896761198507 	0.02992081084913203 	101312.7960928216
-0.7570070070070072 	299.9842049582402 	0.04574827737725989 	101306.3288022878
-0.7545045045045048 	299.9790167241329 	0.06073813586311599 	101300.1962363951
-0.7520020020020022 	299.9742089096818 	0.07461366740239432 	101294.5135178661
-0.7494994994994997 	299.9698709374271 	0.08712478550312946 	101289.3863668145
-0.7469969969969972 	299.9660962646536 	0.09797709778296634 	101284.9251219673
-0.7444944944944945 	299.9629767187306 	0.10701270122031 	101281.238234793
-0.7419919919919924 	299.9605674101783 	0.1139941271474543 	101278.3908206479
-0.7394894894894897 	299.9589022434452 	0.1188125242667423 	101276.4227779024
-0.7369869869869872 	299.9579999166467 	0.121445813771906 	101275.3563511933
-0.7344844844844846 	299.957867894412 	0.1218144954521852 	101275.2003265673
-0.7319819819819822 	299.9585072194111 	0.119986240801489 	101275.9557953736
-0.7294794794794797 	299.9599098981447 	0.1159263000849745 	101277.6134065399
-0.7269769769769773 	299.9620425303346 	0.109703096482758 	101280.1336757685
-0.7244744744744747 	299.9648773685353 	0.1014756816974042 	101283.483915507
-0.721971971971972 	299.9683728522791 	0.09134762095445111 	101287.6150619736
-0.7194694694694695 	299.9724582506414 	0.0795816535324959 	101292.4435261284
-0.7169669669669674 	299.9770390308346 	0.06634315224546787 	101297.8577124005
-0.7144644644644647 	299.9820189539568 	0.0519456698571034 	101303.743888565
-0.711961961961962 	299.9872851587016 	0.03674374621144879 	101309.9687410229
-0.7094594594594597 	299.9927451067286 	0.02096465834919155 	101316.4229192212
-0.7069569569569573 	299.9982936356452 	0.004967345706476084 	101322.9820846143
-0.7044544544544545 	300.0038480302052 	0.01140099934221008 	101329.5485149437
-0.7019519519519523 	300.0093578514962 	0.02716760089868224 	101336.0625463582
-0.6994494494494495 	300.0147421120074 	0.04270865997758528 	101342.4284451671
-0.6969469469469471 	300.0198917708113 	0.05760476100446293 	101348.5172570004
-0.6944444444444446 	300.0247192205892 	0.07148627044478174 	101354.2253245517
-0.6919419419419421 	300.029102973041 	0.08416237267983029 	101359.4089866253
-0.6894394394394396 	300.0329590027669 	0.09536463181545388 	101363.9687852061
-0.6869369369369374 	300.0362219992919 	0.1047256472765072 	101367.8274601097
-0.6844344344344344 	300.0388270552454 	0.1122114090244146 	101370.9081775157
-0.6819319319319321 	300.0407055866932 	0.1176286109823798 	101373.1297626326
-0.6794294294294296 	300.0418399689968 	0.1209290813120774 	101374.4713681364
-0.6769269269269272 	300.0421921157711 	0.1220349224637162 	101374.8878407068
-0.6744244244244245 	300.0417672566649 	0.1207737893783742 	101374.3854336075
-0.6719219219219222 	300.0405683098559 	0.1172663641451515 	101372.9676925409
-0.6694194194194195 	300.0386021775295 	0.1115357473235539 	101370.642666724
-0.6669169169169172 	300.0358898584702 	0.1037548565881158 	101367.4352746884
-0.6644144144144146 	300.0325171638086 	0.09402538233824413 	101363.4469977414
-0.661911911911912 	300.028522499131 	0.0824043737793005 	101358.7233961121
-0.6594094094094097 	300.0239884062349 	0.06926691097466396 	101353.3620945317
-0.656906906906907 	300.0189956347958 	0.05480874461629503 	101347.4586458507
-0.6544044044044046 	300.0136430875606 	0.03940642498854768 	101341.1300903558
-0.6519019019019021 	300.0080474967053 	0.02336088829803929 	101334.5144099897
-0.6493993993993996 	300.0023709967487 	0.006839223511709685 	101327.8034285804
-0.6468968968968971 	299.9966624480069 	0.01101576586184722 	101321.0548511334
-0.6443943943943946 	299.9909855245362 	0.02610985197556965 	101314.3439671962
-0.6418918918918921 	299.9854533826476 	0.04210604983118652 	101307.8045620936
-0.6393893893893897 	299.9801849705211 	0.05729108296056321 	101301.5771170792
-0.6368868868868871 	299.9752926869994 	0.07146370220929604 	101295.7945502067
-0.6343843843843846 	299.9708613774701 	0.08427629599938344 	101290.5570238983
-0.6318818818818821 	299.9669760423832 	0.09547338415151367 	101285.9649375751
-0.6293793793793795 	299.9637192873747 	0.104901082152092 	101282.1159046477
-0.6268768768768773 	299.9611478947272 	0.1123044776091791 	101279.07687231
-0.6243743743743745 	299.9593012582868 	0.1176443653752238 	101276.8943681482
-0.6218718718718721 	299.9582177022685 	0.1207864216256195 	101275.6136541449
-0.6193693693693696 	299.9579109160185 	0.1216550955238626 	101275.2511680703
-0.6168668668668671 	299.9583880276477 	0.1202851089771041 	101275.8150099162
-0.6143643643643645 	299.959637625968 	0.1166567661141209 	101277.2916755215
-0.6118618618618621 	299.9616200478296 	0.1109388039521984 	101279.6344507767
-0.6093593593593596 	299.9642910800718 	0.1031978658175949 	101282.7910831374
-0.6068568568568571 	299.967622686751 	0.09355941927162728 	101286.7285056148
-0.6043543543543546 	299.9715538015183 	0.08221464574431944 	101291.3746131083
-0.6018518518518521 	299.9760070947628 	0.06930755310619165 	101296.6380489379
-0.5993493493493496 	299.9808857494162 	0.05522093966968565 	101302.4044898739
-0.5968468468468471 	299.9860758134814 	0.04022780049343141 	101308.5392795246
-0.5943443443443446 	299.9914668731798 	0.02462374730866922 	101314.9119324508
-0.591841841841842 	299.9969731371913 	0.008739947522749116 	101321.4210813326
-0.5893393393393397 	300.0024989357602 	0.0096317076594504 	101327.9536179013
-0.5868368368368371 	300.0080084201124 	0.02322923673023865 	101334.4671838239
-0.5843343343343346 	300.013417493695 	0.03885202910714965 	101340.8623410049
-0.5818318318318321 	300.018620706353 	0.05389896796353085 	101347.0143886592
-0.5793293293293297 	300.0235182658973 	0.06803332458804591 	101352.805304105
-0.5768268268268271 	300.0280022432013 	0.08099115597637901 	101358.1074171697
-0.5743243243243245 	300.0319774050199 	0.09248070931708192 	101362.8080575675
-0.5718218218218221 	300.0353676560861 	0.102266440526852 	101366.8171740115
-0.5693193193193196 	300.0381162529558 	0.1102118072509577 	101370.067609624
-0.5668168168168171 	300.0401824183091 	0.1161761385072124 	101372.5110818239
-0.5643143143143147 	300.0415326509082 	0.1200683244878673 	101374.1079346312
-0.5618118118118121 	300.0421232529453 	0.1217690650939111 	101374.806444222
-0.5593093093093094 	300.041919845914 	0.1211663734166676 	101374.5658873906
-0.5568068068068072 	300.0409067414172 	0.118228045010667 	101373.3679188506
-0.5543043043043046 	300.0390965446085 	0.1129894605626731 	101371.2273143957
-0.551801801801802 	300.0365344255393 	0.1055897931960716 	101368.1975161692
-0.5492992992992995 	300.0332843478527 	0.09619188770664491 	101364.354238395
-0.5467967967967969 	300.0294115149149 	0.08499136211650297 	101359.7746573657
-0.5442942942942947 	300.0249937859161 	0.07221775716341458 	101354.5509181603
-0.5417917917917919 	300.0201122142663 	0.05809369630903112 	101348.7789091101
-0.5392892892892895 	300.014852576027 	0.04289864797817396 	101342.5601250607
-0.536786786786787 	300.0093202217525 	0.02691909252405359 	101336.0191814059
-0.5342842842842846 	300.0036333963753 	0.01047109040471172 	101329.2959014574
-0.531781781781782 	299.9979003280736 	0.009061185146609176 	101322.5182748221
-0.5292792792792794 	299.9922195299885 	0.02253057991046589 	101315.80274492
-0.526776776776777 	299.9866900434062 	0.03851884149805264 	101309.2663810592
-0.5242742742742745 	299.9813976163412 	0.05382293082988276 	101303.0105318454
-0.521771771771772 	299.9764212119189 	0.06820661103112355 	101297.1284612067
-0.5192692692692695 	299.9718500016371 	0.08140877862399742 	101291.7255394489
-0.516766766766767 	299.9677907835155 	0.09312373961851175 	101286.9279207139
-0.5142642642642645 	299.9643568639764 	0.1030323696936826 	101282.8694470041
-0.511761761761762 	299.9616435061749 	0.1108676890257321 	101279.662668134
-0.5092592592592596 	299.9597053155769 	0.1164747507999341 	101277.3719965562
-0.506756756756757 	299.9585487510797 	0.1198307960033993 	101276.0050512113
-0.5042542542542544 	299.9581444130719 	0.1210113865623164 	101275.5272044392
-0.5017517517517521 	299.9584524858471 	0.1201232012901733 	101275.8912340234
-0.4992492492492494 	299.9594465235319 	0.1172378889874237 	101277.0659178988
-0.496746746746747 	299.961125887379 	0.1123586536004144 	101279.0505165875
-0.4942442442442445 	299.9635100582013 	0.1054367796687494 	101281.8681056732
-0.4917417417417421 	299.9666164697602 	0.09643386983693389 	101285.5393459993
-0.4892392392392395 	299.9704298071291 	0.08540407296131138 	101290.0461863788
-0.486736736736737 	299.9748769763569 	0.07256335361820204 	101295.3023454253
-0.4842342342342345 	299.9798195643419 	0.05830704753484037 	101301.1442920504
-0.481731731731732 	299.9850728949527 	0.04315339287545179 	101307.353807552
-0.4792292292292296 	299.9904479788165 	0.02763349640558267 	101313.7075488288
-0.4767267267267268 	299.995802503614 	0.0121536121300129 	101320.0372653147
-0.4742242242242246 	300.001058414982 	0.006568514564117126 	101326.2506946523
-0.471721721721722 	300.0062147635282 	0.01802748379109056 	101332.3466863568
-0.4692192192192195 	300.0113084018035 	0.03279571834173574 	101338.3687852954
-0.4667167167167169 	300.0163707805091 	0.04745624899790764 	101344.3541935999
-0.4642142142142145 	300.021387568143 	0.06195861158380917 	101350.2859409334
-0.461711711711712 	300.0262747688218 	0.07605937305113729 	101356.064724667
-0.4592092092092094 	300.0308785635895 	0.08931892788976224 	101361.5086449792
-0.456706706706707 	300.03499373428 	0.1011528573468276 	101366.3749656273
-0.4542042042042045 	300.0383943324426 	0.1109191398804743 	101370.3964509723
-0.451701701701702 	300.0408701598863 	0.1180214527229739 	101373.3244257576
-0.4491991991991995 	300.0422616572978 	0.1220082975133742 	101374.9701192552
-0.4466966966966969 	300.0424871797206 	0.122649884970005 	101375.2368552299
-0.4441941941941945 	300.0415574788834 	0.1199799338418674 	101374.1374609456
-0.441691691691692 	300.0395766523068 	0.1142969677109253 	101371.7951306563
-0.4391891891891895 	300.0367286680469 	0.1061249213137363 	101368.427280304
-0.436686686686687 	300.0332510793681 	0.09614046977214402 	101364.3149450816
-0.4341841841841846 	300.0294032790411 	0.08508231320598687 	101359.7649376551
-0.431681681681682 	300.025433830904 	0.07365929581544575 	101355.0712151447
-0.4291791791791794 	300.0215533037342 	0.06247485685766956 	101350.4827729695
-0.426676676676677 	300.0179187451147 	0.05198371160096273 	101346.1852934665
-0.4241741741741744 	300.0146324203084 	0.04248502463822669 	101342.2996661116
-0.421671671671672 	300.0117487172033 	0.03413992902278486 	101338.8901639483
-0.4191691691691694 	300.0092837387623 	0.02699856006570178 	101335.9757937218
-0.4166666666666669 	300.0072253393374 	0.02102882918479007 	101333.5421676867
-0.4141641641641645 	300.0055424471247 	0.0161432767933661 	101331.5525281209
-0.411661661661662 	300.0041929996794 	0.0122220148436953 	101329.9571289754
-0.4091591591591594 	300.0031301992979 	0.009130883358092924 	101328.7006323518
-0.406656656656657 	300.0023070827878 	0.006734760588257257 	101327.7275085428
-0.4041541541541545 	300.001679570349 	0.004906490735798405 	101326.9856396217
-0.401651651651652 	300.0012082565378 	0.003532171170621322 	101326.4284367036
-0.3991491491491494 	300.0008592373838 	0.002513631861886715 	101326.0158153223
-0.396646646646647 	300.0006042460561 	0.001768905919769643 	101325.7143571441
-0.3941441441441444 	300.0004203425754 	0.001231383250693258 	101325.4969411761
-0.3916416416416419 	300.0002893433777 	0.00084820193609816 	101325.3420703179
-0.3891391391391395 	300.0001971366506 	0.0005782900918053747 	101325.2330608958
-0.3866366366366368 	300.0001329778956 	0.0003903440827296452 	101325.1572105779
-0.3841341341341344 	300.0000888295648 	0.0002609230332357484 	101325.1050170792
-0.381631631631632 	300.0000587762302 	0.0001727592501621143 	101325.0694872139
-0.3791291291291294 	300.000038530876 	0.0001133259741274038 	101325.0455524497
-0.3766266266266269 	300.0000250303864 	7.366593597587454e-05 	101325.029591718
-0.3741241241241244 	300.000016116199 	4.746112427975675e-05 	101325.0190530754
-0.371621621621622 	300.0000102866616 	3.031264628086701e-05 	101325.0121612117
-0.3691191191191194 	300.0000065099831 	1.919555546037144e-05 	101325.0076962958
-0.366616616616617 	300.0000040855533 	1.205427165379681e-05 	101325.0048300575
-0.3641141141141143 	300.0000025430009 	7.507826079455422e-06 	101325.0030064743
-0.3616116116116119 	300.0000015701572 	4.638588722605468e-06 	101325.0018563638
-0.3591091091091095 	300.000000961884 	2.84328017910058e-06 	101325.0011371868
-0.356606606606607 	300.0000005846505 	1.729319574269237e-06 	101325.0006912315
-0.3541041041041044 	300.0000003526849 	1.043785090691944e-06 	101325.0004169609
-0.3516016016016019 	300.0000002111722 	6.252924750273674e-07 	101325.0002496329
-0.3490990990990994 	300.0000001254861 	3.718289791319457e-07 	101325.0001483523
-0.346596596596597 	300.0000000740977 	2.195078757583343e-07 	101325.0000875227
-0.3440940940940944 	300.0000000434376 	1.286585575777529e-07 	101325.0000512652
-0.3415915915915919 	300.0000000252533 	7.488435967764792e-08 	101325.0000298151
-0.3390890890890895 	300.000000014545 	4.328158297076411e-08 	101325.0000172186
-0.3365865865865869 	300.0000000083862 	2.484950477168761e-08 	101325.0000098746
-0.3340840840840844 	300.0000000047674 	1.417017560110635e-08 	101325.0000056231
-0.3315815815815819 	300.0000000027233 	8.03060415419814e-09 	101325.000003179
-0.3290790790790794 	300.0000000015447 	4.52084080939116e-09 	101325.0000017834
-0.3265765765765769 	300.0000000007543 	2.531491959869482e-09 	101325.0000009918
-0.3240740740740744 	300.0000000004631 	1.40631652401307e-09 	101325.0000005457
-0.3215715715715718 	300.0000000002694 	7.803361556467034e-10 	101325.0000002961
-0.3190690690690695 	300.0000000000553 	4.277794742121267e-10 	101325.0000001575
-0.3165665665665668 	300.0000000000683 	2.370117379415904e-10 	101325.0000000809
-0.3140640640640644 	300.0000000000516 	1.26987216840969e-10 	101325.0000000387
-0.311561561561562 	299.9999999999283 	7.321380156951752e-11 	101325.0000000161
-0.3090590590590593 	300.0000000000035 	3.638278839702324e-11 	101325.0000000036
-0.3065565565565568 	300.0000000000069 	2.62074255132072e-11 	101324.999999997
-0.3040540540540545 	300.0000000000126 	1.131938390506847e-11 	101324.9999999936
-0.3015515515515518 	300.0000000000486 	1.284809689787722e-11 	101324.9999999916
-0.2990490490490494 	299.999999999938 	6.097485476909818e-12 	101324.9999999906
-0.2965465465465469 	299.9999999999835 	7.683947026635306e-12 	101324.9999999898
-0.2940440440440444 	300.0000000000002 	5.236212343536778e-12 	101324.9999999893
-0.2915415415415418 	300.0000000000036 	5.835900471322389e-12 	101324.9999999889
-0.2890390390390395 	300.0000000000032 	5.165239739218469e-12 	101324.9999999888
-0.2865365365365368 	299.9999999999781 	4.080321500637256e-12 	101324.9999999885
-0.2840340340340343 	300.0000000000002 	5.747525922681344e-12 	101324.9999999888
-0.2815315315315318 	299.9999999999056 	4.448783408772189e-12 	101324.9999999888
-0.2790290290290295 	299.9999999999477 	6.365503613362941e-12 	101324.9999999889
-0.2765265265265269 	300.000000000007 	4.627366703946459e-12 	101324.9999999888
-0.2740240240240244 	300.0000000000334 	5.023096121344907e-12 	101324.9999999887
-0.2715215215215219 	300.0000000000151 	5.091033368606383e-12 	101324.9999999886
-0.2690190190190194 	299.9999999999308 	4.829213169008684e-12 	101324.9999999888
-0.2665165165165169 	299.9999999999999 	5.405805413419821e-12 	101324.999999989
-0.2640140140140144 	299.9999999999549 	3.815164869197339e-12 	101324.9999999889
-0.2615115115115119 	300.0000000000003 	5.505887873224374e-12 	101324.9999999891
-0.2590090090090094 	299.9999999999145 	3.860646367209531e-12 	101324.9999999891
-0.2565065065065068 	299.9999999999951 	4.28993446739385e-12 	101324.9999999893
-0.2540040040040044 	299.9999999999982 	4.557145917967467e-12 	101324.9999999893
-0.2515015015015019 	300.0000000000511 	3.398781466467289e-12 	101324.9999999892
-0.2489989989989994 	300.0000000000568 	5.874948854490538e-12 	101324.9999999892
-0.2464964964964968 	299.9999999999887 	2.421743831925695e-12 	101324.9999999894
-0.2439939939939944 	299.9999999999976 	6.794760248921365e-12 	101324.9999999894
-0.2414914914914919 	299.9999999999588 	1.971723879013849e-12 	101324.9999999894
-0.2389889889889893 	300.0000000000057 	6.921037967846122e-12 	101324.9999999893
-0.2364864864864869 	300.0000000000276 	2.243380793252702e-12 	101324.9999999891
-0.2339839839839843 	299.9999999999068 	6.855442595440192e-12 	101324.999999989
-0.2314814814814819 	299.9999999999766 	2.229163292018998e-12 	101324.9999999888
-0.2289789789789792 	299.9999999998979 	6.021213811161958e-12 	101324.9999999886
-0.2264764764764769 	299.999999999932 	2.779520999049176e-12 	101324.9999999885
-0.2239739739739743 	299.9999999999454 	4.938631444227931e-12 	101324.9999999887
-0.2214714714714718 	299.9999999999209 	3.547046323230246e-12 	101324.9999999887
-0.2189689689689693 	299.9999999999613 	3.397867430423489e-12 	101324.9999999888
-0.2164664664664669 	299.9999999999778 	4.671882002207657e-12 	101324.9999999887
-0.2139639639639643 	299.9999999999104 	3.3631171567193e-12 	101324.9999999888
-0.2114614614614618 	299.9999999999636 	3.995033205243959e-12 	101324.9999999889
-0.2089589589589593 	299.9999999999869 	4.46634650618409e-12 	101324.9999999891
-0.2064564564564568 	299.9999999999856 	4.225729269246962e-12 	101324.9999999894
-0.2039539539539543 	299.999999999885 	5.70667316111121e-12 	101324.9999999892
-0.2014514514514518 	299.9999999999347 	2.623794151285389e-12 	101324.9999999892
-0.1989489489489494 	299.9999999999617 	5.835026480896478e-12 	101324.999999989
-0.1964464464464468 	299.9999999999897 	1.768932109715682e-12 	101324.999999989
-0.1939439439439443 	299.9999999999811 	5.607093415569954e-12 	101324.9999999891
-0.1914414414414418 	299.9999999998946 	2.220383602861811e-12 	101324.9999999891
-0.1889389389389393 	300.0000000000106 	3.971260761555845e-12 	101324.9999999891
-0.1864364364364368 	300.0000000000542 	2.279057406252018e-12 	101324.9999999889
-0.1839339339339343 	299.9999999999644 	3.361125194527194e-12 	101324.9999999889
-0.1814314314314318 	299.9999999999953 	1.284567739230514e-12 	101324.999999989
-0.1789289289289293 	299.9999999998714 	3.472541949814226e-12 	101324.999999989
-0.1764264264264268 	299.9999999999771 	5.044087573586154e-13 	101324.9999999891
-0.1739239239239243 	299.9999999998743 	3.714592350772318e-12 	101324.9999999891
-0.1714214214214218 	299.9999999999866 	1.788511653504403e-12 	101324.9999999893
-0.1689189189189193 	299.9999999999416 	5.340006188176028e-12 	101324.9999999894
-0.1664164164164168 	300.0000000000089 	3.178339092578758e-12 	101324.9999999892
-0.1639139139139143 	299.9999999999826 	6.863705930085109e-12 	101324.9999999893
-0.1614114114114118 	300.0000000000324 	4.290911162137582e-12 	101324.9999999891
-0.1589089089089093 	299.9999999999955 	8.669567857684427e-12 	101324.9999999893
-0.1564064064064068 	299.9999999999772 	5.630507458614354e-12 	101324.9999999893
-0.1539039039039043 	299.9999999999879 	8.893613523220349e-12 	101324.9999999894
-0.1514014014014018 	300.0000000000297 	4.961634549138312e-12 	101324.9999999893
-0.1488988988988993 	299.9999999999771 	8.377306364286059e-12 	101324.9999999893
-0.1463963963963968 	299.999999999997 	3.487252349672383e-12 	101324.9999999892
-0.1438938938938943 	299.9999999999368 	7.526959874417719e-12 	101324.9999999891
-0.1413913913913918 	299.9999999999069 	2.019745557624713e-12 	101324.999999989
-0.1388888888888893 	299.999999999977 	5.439120347780222e-12 	101324.9999999887
-0.1363863863863868 	299.9999999998614 	6.7254107845285e-13 	101324.9999999887
-0.1338838838838843 	299.9999999998894 	4.667497783271432e-12 	101324.9999999885
-0.1313813813813818 	299.9999999999969 	1.206736239591964e-12 	101324.9999999885
-0.1288788788788793 	299.9999999999511 	5.358980533681749e-12 	101324.9999999886
-0.1263763763763768 	299.9999999999558 	1.540256581351831e-12 	101324.9999999884
-0.1238738738738743 	299.9999999999057 	5.206884225237701e-12 	101324.9999999885
-0.1213713713713717 	299.9999999999725 	3.501779637511311e-13 	101324.9999999884
-0.1188688688688693 	300.0000000000045 	5.712217378451633e-12 	101324.9999999885
-0.1163663663663668 	299.9999999998889 	3.875899943780009e-13 	101324.9999999886
-0.1138638638638643 	299.9999999999886 	6.390926467487383e-12 	101324.9999999888
-0.1113613613613618 	299.9999999999785 	1.573423533964835e-12 	101324.9999999891
-0.1088588588588592 	299.9999999999665 	5.550647721938686e-12 	101324.9999999892
-0.1063563563563568 	299.9999999999391 	2.113691191727216e-12 	101324.9999999893
-0.1038538538538543 	299.9999999999632 	5.471125736232818e-12 	101324.9999999896
-0.1013513513513517 	300.0000000000182 	8.889813113019307e-13 	101324.9999999895
-0.09884884884884926 	299.9999999999267 	5.549305137492782e-12 	101324.9999999894
-0.09634634634634676 	299.9999999998593 	1.893069095338722e-12 	101324.9999999894
-0.09384384384384425 	299.9999999999087 	4.598683914637028e-12 	101324.9999999895
-0.09134134134134177 	300.0000000000296 	2.037142528999767e-12 	101324.9999999894
-0.08883883883883925 	300.0000000000113 	4.735094340974816e-12 	101324.9999999894
-0.08633633633633674 	299.9999999999434 	3.348012511045238e-12 	101324.9999999894
-0.08383383383383426 	300.0000000000095 	4.402120343553095e-12 	101324.9999999896
-0.08133133133133173 	299.9999999999605 	3.907767079916772e-12 	101324.9999999894
-0.07882882882882926 	299.9999999998569 	3.929634431869789e-12 	101324.9999999892
-0.07632632632632676 	299.9999999999455 	4.12931354802239e-12 	101324.9999999892
-0.07382382382382424 	299.9999999998706 	4.611398259442928e-12 	101324.9999999892
-0.07132132132132173 	300.0000000000142 	4.098178845558824e-12 	101324.9999999891
-0.06881881881881925 	299.9999999999519 	4.196888900291155e-12 	101324.9999999892
-0.06631631631631671 	299.9999999998686 	3.419809350417519e-12 	101324.999999989
-0.06381381381381425 	299.9999999999432 	3.291738255549146e-12 	101324.9999999888
-0.06131131131131173 	299.9999999999453 	3.252635828216569e-12 	101324.999999989
-0.05880880880880923 	299.9999999998944 	3.249101236932888e-12 	101324.9999999887
-0.05630630630630672 	299.9999999999576 	3.035856720939441e-12 	101324.9999999887
-0.05380380380380424 	300.0000000000146 	3.461663584368948e-12 	101324.9999999887
-0.05130130130130173 	300.000000000013 	3.432720658041212e-12 	101324.9999999886
-0.04879879879879922 	299.9999999999298 	3.649180591401342e-12 	101324.9999999888
-0.04629629629629672 	299.9999999999108 	2.820076421406244e-12 	101324.9999999886
-0.04379379379379422 	299.9999999999023 	2.051137837132799e-12 	101324.999999989
-0.04129129129129173 	299.9999999999707 	1.372701064588022e-12 	101324.9999999891
-0.03878878878878922 	299.9999999999727 	1.17088462600829e-12 	101324.9999999889
-0.03628628628628671 	299.9999999999715 	8.807242896757265e-13 	101324.9999999892
-0.03378378378378422 	299.9999999999047 	6.456598931069443e-13 	101324.9999999892
-0.03128128128128172 	299.9999999999596 	4.822769600534866e-14 	101324.9999999891
-0.02877877877877922 	299.999999999959 	3.932027664640047e-13 	101324.999999989
-0.0262762762762767 	299.9999999998751 	6.419389807520765e-15 	101324.9999999889
-0.02377377377377422 	300.0000000000286 	2.030931970661592e-13 	101324.9999999887
-0.0212712712712717 	299.9999999998806 	1.538118578109602e-13 	101324.9999999888
-0.01876876876876921 	299.9999999999623 	4.919273095920675e-14 	101324.9999999887
-0.01626626626626671 	300.0000000000161 	9.615921393587307e-13 	101324.9999999887
-0.0137637637637642 	299.999999999956 	3.308492334708894e-13 	101324.9999999886
-0.0112612612612617 	300.0000000000181 	5.268772025652616e-13 	101324.9999999887
-0.008758758758759198 	299.9999999999944 	5.362950805338669e-13 	101324.9999999888
-0.006256256256256697 	299.999999999856 	1.511928155320275e-12 	101324.9999999888
-0.003753753753754195 	299.9999999999411 	1.736922315182168e-13 	101324.9999999888
-0.001251251251251693 	299.9999999999055 	6.296203431011514e-13 	101324.999999989
0.00125125125125081 	299.9999999999392 	5.619097480917479e-13 	101324.9999999889
0.003753753753753312 	299.9999999999551 	3.392586615743137e-13 	101324.9999999886
0.006256256256255817 	299.9999999998544 	7.37804522732152e-13 	101324.9999999886
0.008758758758758317 	299.9999999999861 	3.638767152653029e-13 	101324.9999999885
0.01126126126126082 	300.000000000012 	1.093661103305736e-12 	101324.9999999886
0.01376376376376332 	299.999999999962 	1.437402982541785e-12 	101324.9999999887
0.01626626626626582 	300.0000000000098 	1.588350867735336e-12 	101324.9999999885
0.01876876876876833 	299.9999999999459 	5.013653634654518e-13 	101324.9999999884
0.02127127127127083 	299.9999999999628 	1.104063547031693e-13 	101324.9999999884
0.02377377377377332 	299.9999999999909 	1.144186950320296e-13 	101324.9999999885
0.02627627627627583 	299.999999999879 	5.070229919393266e-13 	101324.9999999887
0.02877877877877833 	300.0000000000096 	5.691602558465994e-13 	101324.9999999889
0.03128128128128083 	299.9999999999307 	1.271453692339535e-12 	101324.999999989
0.03378378378378333 	299.9999999998784 	3.896634989209713e-13 	101324.9999999891
0.03628628628628584 	299.9999999999603 	2.3595645867517e-13 	101324.9999999893
0.03878878878878834 	299.9999999999743 	1.225740473882358e-13 	101324.9999999895
0.04129129129129084 	299.9999999999696 	4.003270300838208e-14 	101324.9999999896
0.04379379379379333 	299.9999999999255 	1.364086698477409e-13 	101324.9999999901
0.04629629629629585 	299.9999999998623 	4.32416665906009e-13 	101324.9999999901
0.04879879879879834 	299.9999999999384 	2.07011282601411e-13 	101324.99999999
0.05130130130130085 	300.0000000000152 	3.540601985394897e-13 	101324.9999999898
0.05380380380380335 	300.0000000000263 	1.686737442355826e-13 	101324.9999999893
0.05630630630630584 	299.9999999999852 	1.587643521193273e-13 	101324.9999999892
0.05880880880880836 	299.9999999999024 	5.550976151486954e-13 	101324.9999999889
0.06131131131131085 	299.9999999999644 	2.717442136017533e-13 	101324.9999999886
0.06381381381381336 	299.9999999999522 	3.345142538630632e-13 	101324.9999999886
0.06631631631631586 	299.9999999998613 	5.213233610154241e-13 	101324.9999999889
0.06881881881881835 	299.9999999999328 	3.294929312618906e-13 	101324.9999999886
0.07132132132132088 	299.9999999999846 	7.899812276859129e-13 	101324.9999999887
0.07382382382382337 	299.999999999874 	5.462819468962103e-13 	101324.999999989
0.07632632632632587 	299.9999999999656 	5.203084492743542e-13 	101324.999999989
0.07882882882882837 	299.9999999999208 	5.315896120209879e-13 	101324.999999989
0.08133133133133086 	299.9999999999837 	5.164220435444927e-13 	101324.9999999887
0.08383383383383337 	299.9999999999839 	6.172096848018546e-13 	101324.9999999886
0.08633633633633589 	299.9999999998818 	8.491067008035416e-13 	101324.9999999884
0.08883883883883838 	300.0000000000097 	9.219709234825035e-13 	101324.9999999883
0.09134134134134086 	299.9999999999805 	2.252859316245108e-13 	101324.9999999881
0.09384384384384339 	299.9999999998674 	8.179495054582183e-13 	101324.9999999881
0.09634634634634588 	299.9999999999542 	9.289466881721704e-13 	101324.9999999881
0.09884884884884838 	299.9999999999616 	1.199941453311134e-12 	101324.9999999883
0.1013513513513509 	300.0000000000318 	1.073138730000266e-12 	101324.9999999882
0.1038538538538534 	299.999999999937 	1.131718450256476e-12 	101324.999999988
0.1063563563563559 	300.0000000000207 	1.617694132569148e-12 	101324.999999988
0.1088588588588584 	300.0000000000255 	1.212899005791368e-12 	101324.9999999878
0.1113613613613609 	299.9999999999026 	1.196756925210489e-12 	101324.9999999878
0.1138638638638634 	299.9999999999276 	1.68066182235203e-12 	101324.9999999881
0.1163663663663659 	299.9999999999307 	1.930295995924628e-12 	101324.9999999883
0.1188688688688684 	299.9999999999624 	1.908983792269416e-12 	101324.9999999885
0.1213713713713709 	299.9999999999908 	1.433554378582764e-12 	101324.9999999886
0.1238738738738734 	299.999999999903 	1.539493671519542e-12 	101324.9999999888
0.1263763763763759 	299.9999999999829 	1.192739750982061e-12 	101324.9999999889
0.1288788788788784 	299.9999999999839 	1.245929409695803e-12 	101324.9999999887
0.1313813813813809 	299.9999999999824 	1.369148632541193e-12 	101324.9999999887
0.1338838838838834 	299.9999999999674 	1.184100743840288e-12 	101324.9999999889
0.1363863863863859 	300.00000000004 	5.59450159552781e-13 	101324.9999999891
0.1388888888888884 	300.0000000000575 	1.544354267706355e-13 	101324.9999999892
0.1413913913913909 	299.9999999999992 	9.266869392770532e-13 	101324.9999999894
0.1438938938938934 	299.9999999999861 	2.160729089109367e-13 	101324.9999999893
0.1463963963963959 	299.9999999999536 	1.248297620013514e-12 	101324.9999999892
0.1488988988988985 	299.9999999998875 	1.365191946869468e-12 	101324.9999999891
0.1514014014014009 	299.9999999999607 	4.964314367620962e-13 	101324.9999999892
0.1539039039039035 	299.9999999999502 	1.86814207010279e-12 	101324.999999989
0.1564064064064059 	299.9999999999176 	8.312719027402928e-13 	101324.9999999887
0.1589089089089084 	299.9999999999688 	2.86417079215263e-12 	101324.9999999888
0.1614114114114109 	299.9999999999638 	5.335709361624309e-13 	101324.9999999888
0.1639139139139134 	299.9999999998906 	2.824186354695362e-12 	101324.9999999889
0.166416416416416 	300.0000000000011 	2.228354621954535e-12 	101324.9999999889
0.1689189189189185 	300.0000000000408 	1.892000399426338e-12 	101324.9999999888
0.1714214214214209 	299.9999999999931 	2.000128159367974e-12 	101324.9999999886
0.1739239239239235 	299.9999999999893 	3.115331689309307e-13 	101324.9999999887
0.1764264264264259 	299.9999999999565 	2.28215482580587e-12 	101324.9999999885
0.1789289289289284 	300.000000000011 	9.340515804847918e-13 	101324.9999999886
0.181431431431431 	299.9999999999574 	2.11213068148807e-12 	101324.9999999888
0.1839339339339334 	299.9999999999621 	6.383000268011931e-13 	101324.9999999887
0.186436436436436 	299.9999999999072 	2.448320016838864e-12 	101324.9999999887
0.1889389389389385 	299.9999999999798 	2.065413916987641e-12 	101324.9999999888
0.191441441441441 	299.9999999999745 	2.101288421263438e-12 	101324.999999989
0.1939439439439434 	299.9999999999002 	3.65561448578836e-12 	101324.999999989
0.196446446446446 	299.9999999999304 	2.125083748455053e-12 	101324.9999999891
0.1989489489489485 	299.9999999999636 	3.984975326889381e-12 	101324.9999999888
0.2014514514514509 	299.9999999999748 	2.094158935216004e-12 	101324.9999999889
0.2039539539539535 	299.999999999992 	4.021653156013739e-12 	101324.9999999889
0.2064564564564559 	299.9999999999485 	3.460645367033671e-12 	101324.9999999889
0.2089589589589585 	299.9999999999728 	4.273724603482952e-12 	101324.9999999889
0.211461461461461 	299.9999999999175 	5.178194431704697e-12 	101324.9999999886
0.2139639639639635 	299.9999999999802 	5.407702379429991e-12 	101324.9999999887
0.2164664664664659 	299.9999999999922 	5.697005165340687e-12 	101324.9999999886
0.2189689689689684 	299.9999999999921 	2.908463981247422e-12 	101324.9999999885
0.221471471471471 	299.9999999999939 	4.629860770966016e-12 	101324.9999999885
0.2239739739739735 	299.9999999999437 	1.554104393459793e-12 	101324.9999999887
0.226476476476476 	299.9999999999746 	2.302883897144719e-12 	101324.9999999886
0.2289789789789785 	299.9999999999968 	1.16862388580812e-12 	101324.9999999886
0.231481481481481 	299.9999999999838 	9.432523432234218e-13 	101324.9999999887
0.2339839839839835 	299.9999999999856 	1.083117812362878e-12 	101324.9999999886
0.236486486486486 	300.0000000000261 	5.065784340582095e-13 	101324.9999999886
0.2389889889889885 	299.9999999999986 	1.039169305646853e-12 	101324.9999999886
0.241491491491491 	299.9999999999003 	1.399278799205286e-12 	101324.9999999885
0.2439939939939935 	299.9999999999758 	2.284011688230883e-12 	101324.9999999885
0.246496496496496 	299.999999999991 	2.567142928391858e-13 	101324.9999999886
0.2489989989989985 	300.0000000000422 	2.383517208350374e-12 	101324.9999999887
0.251501501501501 	300.0000000000351 	1.56496381926154e-12 	101324.9999999885
0.2540040040040035 	299.9999999999798 	2.007243524645541e-12 	101324.9999999883
0.256506506506506 	300.0000000000308 	2.993284008603882e-12 	101324.9999999881
0.2590090090090086 	299.9999999998822 	1.942650109544435e-12 	101324.9999999881
0.261511511511511 	299.9999999999953 	4.301438334113027e-12 	101324.9999999882
0.2640140140140135 	299.9999999999854 	1.913087188354088e-12 	101324.9999999881
0.2665165165165161 	299.9999999999106 	3.670537459589882e-12 	101324.9999999882
0.2690190190190185 	300.0000000000072 	2.198827733917218e-12 	101324.9999999883
0.271521521521521 	300.0000000000127 	2.273193818245433e-12 	101324.9999999883
0.2740240240240235 	300.0000000000185 	1.84316391729688e-12 	101324.9999999881
0.276526526526526 	300.0000000000057 	1.065710834069437e-12 	101324.9999999882
0.2790290290290286 	299.9999999999227 	1.337029484314856e-12 	101324.9999999882
0.281531531531531 	299.9999999999103 	4.442755176168218e-13 	101324.9999999882
0.2840340340340335 	299.9999999999744 	2.013761214673254e-12 	101324.999999988
0.2865365365365361 	299.9999999999479 	1.491595713897918e-12 	101324.999999988
0.2890390390390385 	299.9999999999961 	1.841605360250957e-12 	101324.9999999882
0.291541541541541 	299.9999999999951 	2.426782002031566e-12 	101324.9999999883
0.2940440440440436 	299.9999999999876 	1.130659623510123e-12 	101324.9999999886
0.296546546546546 	299.9999999999847 	2.600434996152909e-12 	101324.9999999887
0.2990490490490486 	299.9999999999186 	1.762042059780896e-12 	101324.9999999887
0.3015515515515511 	300.0000000000497 	3.541475784413558e-12 	101324.9999999887
0.3040540540540535 	299.9999999999961 	3.243647575967091e-12 	101324.9999999888
0.3065565565565562 	299.9999999999936 	4.740125960088845e-12 	101324.9999999887
0.3090590590590585 	299.9999999999837 	2.490605808087666e-12 	101324.9999999885
0.3115615615615611 	299.9999999999234 	4.383912622230615e-12 	101324.9999999886
0.3140640640640635 	300.000000000005 	8.863434194092837e-13 	101324.9999999884
0.316566566566566 	299.999999999989 	3.485989212065719e-12 	101324.9999999886
0.3190690690690687 	299.9999999999428 	1.036467966358319e-12 	101324.9999999886
0.3215715715715711 	300.0000000000165 	3.445227326588599e-12 	101324.9999999887
0.3240740740740735 	299.9999999999956 	9.005881068782005e-13 	101324.9999999885
0.326576576576576 	299.999999999879 	3.066226377783315e-12 	101324.9999999885
0.3290790790790786 	300.0000000000103 	1.272175919747161e-12 	101324.9999999882
0.3315815815815811 	300.0000000000396 	2.791937156261087e-12 	101324.9999999881
0.3340840840840836 	299.9999999999818 	1.555973933987628e-12 	101324.9999999883
0.3365865865865861 	300.0000000000668 	3.005891355666107e-12 	101324.9999999886
0.3390890890890886 	300.0000000000593 	1.662675860884538e-12 	101324.9999999887
0.3415915915915911 	300.000000000002 	2.78733433391866e-12 	101324.9999999885
0.3440940940940935 	299.9999999999404 	1.373567273984035e-12 	101324.9999999884
0.3465965965965962 	300.0000000000416 	2.679163337184205e-12 	101324.9999999881
0.3490990990990985 	300.000000000033 	6.879727039343665e-13 	101324.9999999883
0.3516016016016011 	299.9999999999828 	4.281143785370853e-13 	101324.9999999883
0.3541041041041035 	300.0000000000097 	7.288094861742391e-13 	101324.9999999884
0.3566066066066061 	299.9999999999463 	1.131223986874972e-12 	101324.9999999886
0.3591091091091085 	299.9999999998998 	1.169485047473567e-12 	101324.9999999888
0.3616116116116112 	299.9999999999197 	1.884240574577088e-12 	101324.9999999891
0.3641141141141137 	299.9999999999108 	2.734563221007716e-12 	101324.9999999892
0.3666166166166161 	299.9999999999072 	2.267891182862044e-12 	101324.9999999891
0.3691191191191185 	300.0000000000514 	3.681464791825451e-12 	101324.999999989
0.371621621621621 	300.0000000000217 	2.374270768060988e-12 	101324.9999999889
0.3741241241241237 	300.000000000065 	2.668273900484007e-12 	101324.9999999886
0.3766266266266261 	300.000000000034 	1.544915290743234e-12 	101324.9999999885
0.3791291291291286 	299.9999999999754 	2.04482443766977e-12 	101324.9999999882
0.3816316316316311 	299.9999999998993 	1.567690450233997e-12 	101324.9999999881
0.3841341341341336 	300.0000000000091 	2.062399597567122e-12 	101324.9999999878
0.3866366366366362 	299.9999999999952 	1.146307722974234e-12 	101324.9999999881
0.3891391391391387 	299.9999999999409 	1.149878863026054e-12 	101324.9999999883
0.391641641641641 	299.9999999999943 	1.796609161138128e-12 	101324.9999999885
0.3941441441441436 	300.0000000000093 	1.267937738577332e-12 	101324.9999999886
0.3966466466466462 	299.9999999999987 	2.839005290669534e-12 	101324.9999999887
0.3991491491491486 	299.9999999999386 	1.253327086872883e-12 	101324.9999999887
0.4016516516516512 	299.9999999999031 	1.758456080875353e-12 	101324.9999999887
0.4041541541541536 	299.9999999999391 	4.768858795191962e-13 	101324.9999999889
0.4066566566566561 	299.9999999999368 	1.380504172733382e-12 	101324.9999999889
0.4091591591591587 	299.9999999999949 	8.987752225311564e-13 	101324.9999999889
0.4116616616616612 	300.0000000000099 	1.245825730959774e-13 	101324.9999999889
0.4141641641641635 	300.0000000000524 	1.655892465862893e-13 	101324.999999989
0.4166666666666662 	299.9999999999906 	4.081709714940106e-13 	101324.9999999889
0.4191691691691687 	299.999999999925 	1.519635414650742e-12 	101324.9999999891
0.421671671671671 	300.0000000000145 	1.795168781682426e-12 	101324.9999999893
0.4241741741741737 	299.9999999999679 	2.957480979627948e-12 	101324.9999999896
0.4266766766766761 	299.999999999942 	2.75686662814919e-12 	101324.9999999896
0.4291791791791785 	300.0000000000214 	3.373824595725037e-12 	101324.9999999897
0.4316816816816812 	300.0000000000134 	3.013035824348378e-12 	101324.9999999897
0.4341841841841836 	299.9999999999843 	3.583815161457802e-12 	101324.9999999894
0.4366866866866862 	299.9999999999083 	1.599703352590707e-12 	101324.9999999892
0.4391891891891885 	299.9999999999848 	3.042156334714487e-12 	101324.9999999891
0.4416916916916913 	299.9999999999786 	1.269755070158573e-12 	101324.9999999889
0.4441941941941936 	299.9999999999836 	1.908599928409507e-12 	101324.9999999887
0.4466966966966961 	299.9999999999003 	8.045844189757681e-13 	101324.9999999887
0.4491991991991987 	299.999999999975 	4.57777300508975e-13 	101324.9999999887
0.4517017017017012 	299.9999999999716 	5.510686511515336e-13 	101324.9999999888
0.4542042042042035 	299.9999999999748 	5.206603934190597e-13 	101324.9999999886
0.4567067067067062 	299.9999999999873 	3.749192316355804e-13 	101324.9999999885
0.4592092092092087 	299.9999999999097 	5.444537751786637e-13 	101324.9999999887
0.4617117117117112 	300.00000000002 	4.032516276852326e-13 	101324.9999999888
0.4642142142142137 	299.9999999999546 	4.923863310114697e-13 	101324.999999989
0.4667167167167162 	299.9999999999856 	1.743417453420507e-13 	101324.9999999892
0.4692192192192187 	299.9999999999459 	2.573598654880579e-13 	101324.9999999893
0.4717217217217212 	300.0000000000169 	1.560454433417197e-13 	101324.9999999893
0.4742242242242236 	299.9999999999453 	4.949810206372164e-13 	101324.9999999894
0.4767267267267262 	299.9999999999735 	8.640380022291199e-13 	101324.9999999894
0.4792292292292287 	300.000000000014 	9.795658052740517e-13 	101324.9999999893
0.4817317317317312 	300.0000000000343 	5.501770024912503e-13 	101324.9999999894
0.4842342342342336 	299.9999999999815 	7.784240859542345e-13 	101324.9999999894
0.4867367367367362 	299.9999999999418 	4.546501484995333e-13 	101324.9999999893
0.4892392392392387 	300.0000000000284 	1.278011948641583e-12 	101324.9999999893
0.4917417417417412 	300.0000000000045 	8.145354254782818e-13 	101324.9999999891
0.4942442442442437 	299.9999999998898 	1.295618729253271e-12 	101324.999999989
0.4967467467467462 	299.9999999999133 	9.559725066706561e-13 	101324.999999989
0.4992492492492487 	299.9999999999005 	2.033001276905759e-12 	101324.9999999893
0.5017517517517511 	299.9999999999424 	1.565350127604858e-12 	101324.9999999894
0.5042542542542537 	299.9999999999553 	2.450940344730878e-12 	101324.9999999896
0.5067567567567562 	299.9999999999311 	2.806254560535319e-12 	101324.9999999899
0.5092592592592589 	299.9999999999613 	2.718382244388347e-12 	101324.9999999901
0.5117617617617611 	299.9999999999492 	3.972920687390762e-12 	101324.99999999
0.5142642642642637 	299.9999999999792 	2.470845720311431e-12 	101324.9999999899
0.5167667667667663 	299.999999999964 	4.822145155264379e-12 	101324.9999999897
0.5192692692692688 	299.9999999999088 	1.844324326104844e-12 	101324.9999999895
0.5217717717717714 	299.9999999999318 	5.967086447461331e-12 	101324.9999999894
0.5242742742742736 	299.9999999999363 	1.516785166045524e-12 	101324.9999999894
0.5267767767767763 	299.9999999999507 	4.239552021591256e-12 	101324.9999999896
0.5292792792792789 	299.9999999999295 	1.226411992062981e-12 	101324.9999999897
0.5317817817817813 	299.9999999998898 	3.551859532476302e-12 	101324.9999999897
0.5342842842842837 	300.0000000000205 	2.270088709335018e-12 	101324.9999999895
0.5367867867867864 	300.0000000000047 	4.498034089796233e-12 	101324.9999999895
0.5392892892892888 	299.9999999999492 	3.415293328105404e-12 	101324.9999999896
0.5417917917917912 	300.0000000000027 	4.5980322745932e-12 	101324.9999999893
0.5442942942942938 	299.9999999999766 	3.23872038774374e-12 	101324.9999999893
0.5467967967967964 	299.9999999999443 	4.196375125391405e-12 	101324.9999999892
0.5492992992992988 	299.9999999999351 	3.096445967718553e-12 	101324.9999999891
0.5518018018018012 	299.999999999926 	3.926028755036439e-12 	101324.9999999889
0.5543043043043039 	300.0000000000239 	3.392101931440741e-12 	101324.999999989
0.5568068068068063 	299.9999999999894 	4.358757618590635e-12 	101324.9999999891
0.5593093093093087 	299.999999999888 	3.132306988535367e-12 	101324.9999999892
0.5618118118118114 	299.9999999999513 	4.189966145608516e-12 	101324.9999999892
0.5643143143143137 	299.9999999999342 	2.806272823371021e-12 	101324.9999999892
0.5668168168168163 	299.9999999999891 	3.260877393988623e-12 	101324.9999999891
0.5693193193193188 	300.000000000031 	3.251394540061919e-12 	101324.9999999893
0.5718218218218213 	300.0000000000266 	2.96566063567555e-12 	101324.9999999894
0.5743243243243239 	300.0000000000108 	4.247132917361044e-12 	101324.9999999894
0.5768268268268262 	300.0000000000059 	2.661262886590446e-12 	101324.9999999893
0.5793293293293288 	299.9999999999424 	5.526805260240651e-12 	101324.9999999892
0.5818318318318314 	299.99999999991 	2.362801965570443e-12 	101324.9999999891
0.5843343343343338 	299.9999999999788 	6.487809673458673e-12 	101324.9999999892
0.5868368368368363 	299.9999999999719 	2.167906615731974e-12 	101324.9999999893
0.5893393393393387 	299.9999999999337 	5.811258555176983e-12 	101324.9999999894
0.5918418418418413 	299.9999999999301 	3.401220261891645e-12 	101324.9999999895
0.5943443443443439 	300.0000000000124 	5.801343014514067e-12 	101324.9999999895
0.5968468468468463 	300.0000000000191 	3.432298373249136e-12 	101324.9999999895
0.5993493493493487 	300.0000000000446 	5.039734949190735e-12 	101324.9999999894
0.6018518518518514 	299.9999999999776 	3.168902697449636e-12 	101324.9999999894
0.6043543543543537 	299.9999999999919 	4.441439020740488e-12 	101324.9999999894
0.6068568568568564 	299.9999999999775 	2.428904354494473e-12 	101324.9999999895
0.6093593593593587 	299.9999999999172 	3.261810378982787e-12 	101324.9999999896
0.6118618618618614 	299.9999999999114 	2.256843118404398e-12 	101324.9999999896
0.6143643643643638 	300.00000000002 	3.432904252780269e-12 	101324.9999999895
0.6168668668668662 	299.9999999999807 	2.28580226426523e-12 	101324.9999999895
0.6193693693693688 	299.9999999999471 	3.725037282466045e-12 	101324.9999999894
0.6218718718718714 	299.9999999999592 	2.073345166437483e-12 	101324.9999999894
0.6243743743743737 	299.9999999999218 	3.699782618751469e-12 	101324.9999999895
0.6268768768768762 	299.9999999999139 	2.561023783674144e-12 	101324.9999999894
0.629379379379379 	299.9999999999485 	3.406881409084411e-12 	101324.9999999892
0.6318818818818812 	299.9999999999737 	3.028560241663603e-12 	101324.9999999892
0.6343843843843838 	300.0000000000187 	2.992307214205784e-12 	101324.9999999893
0.6368868868868864 	299.9999999999777 	4.055232250129907e-12 	101324.9999999893
0.6393893893893888 	299.9999999999076 	2.673567908518486e-12 	101324.9999999893
0.6418918918918912 	300.0000000000117 	5.416445405554428e-12 	101324.9999999892
0.6443943943943939 	299.9999999999947 	2.694378515408035e-12 	101324.9999999892
0.6468968968968963 	299.9999999999873 	5.72561771407323e-12 	101324.9999999892
0.6493993993993988 	299.9999999999725 	2.006074815969265e-12 	101324.9999999893
0.6519019019019012 	299.9999999999693 	4.533699805485419e-12 	101324.9999999895
0.6544044044044038 	299.9999999998855 	2.162811665584176e-12 	101324.9999999895
0.6569069069069065 	299.9999999999427 	3.729460509223762e-12 	101324.9999999895
0.6594094094094087 	299.999999999957 	1.53458785684707e-12 	101324.9999999894
0.6619119119119113 	299.9999999999459 	2.949110818534609e-12 	101324.9999999894
0.664414414414414 	300.0000000000009 	1.057203422974188e-12 	101324.9999999894
0.6669169169169162 	300.0000000000258 	2.477467090160729e-12 	101324.9999999896
0.6694194194194188 	299.9999999999848 	1.182389379569482e-12 	101324.9999999895
0.6719219219219214 	299.9999999999044 	2.998651198413444e-12 	101324.9999999896
0.674424424424424 	299.999999999959 	2.425488157822835e-12 	101324.9999999895
0.6769269269269262 	299.999999999902 	4.125187746984708e-12 	101324.9999999894
0.679429429429429 	300.0000000000032 	3.266563809651308e-12 	101324.9999999896
0.6819319319319311 	299.9999999999826 	3.816114828532022e-12 	101324.9999999895
0.6844344344344341 	299.9999999999951 	2.279778247707116e-12 	101324.9999999897
0.686936936936936 	299.9999999999879 	3.494928200782295e-12 	101324.9999999897
0.6894394394394392 	299.9999999999803 	2.862226610031826e-12 	101324.9999999897
0.6919419419419413 	299.9999999999836 	3.191854414225147e-12 	101324.9999999896
0.694444444444444 	299.9999999999229 	3.106164174465927e-12 	101324.9999999895
0.6969469469469463 	299.9999999999161 	3.089171455386831e-12 	101324.9999999896
0.6994494494494489 	299.9999999999073 	3.925912564482236e-12 	101324.9999999897
0.7019519519519515 	299.999999999984 	3.19835827968307e-12 	101324.9999999897
0.7044544544544538 	299.9999999999483 	4.46542229752223e-12 	101324.9999999896
0.7069569569569564 	299.9999999999995 	2.1521556947022e-12 	101324.9999999896
0.7094594594594589 	299.9999999999638 	4.375860704171723e-12 	101324.9999999896
0.7119619619619615 	299.9999999999012 	2.093934525561911e-12 	101324.9999999898
0.7144644644644638 	299.999999999945 	4.120056351823586e-12 	101324.9999999899
0.7169669669669665 	299.9999999999079 	2.959700544148193e-12 	101324.9999999899
0.7194694694694688 	299.9999999999911 	4.136639840970179e-12 	101324.99999999
0.7219719719719715 	299.9999999999865 	2.971995181351871e-12 	101324.9999999899
0.7244744744744737 	300.0000000000049 	3.329677438471772e-12 	101324.9999999899
0.7269769769769764 	299.9999999999933 	3.406951673176857e-12 	101324.9999999898
0.7294794794794791 	299.9999999999858 	2.501899046932618e-12 	101324.9999999899
0.7319819819819813 	299.9999999999722 	4.352463990393419e-12 	101324.9999999898
0.7344844844844839 	299.9999999999089 	3.114997865999695e-12 	101324.9999999897
0.7369869869869864 	299.9999999999409 	4.675339785753447e-12 	101324.9999999898
0.739489489489489 	299.9999999999321 	4.775898850941722e-12 	101324.9999999898
0.7419919919919914 	299.9999999999187 	5.265660442933468e-12 	101324.9999999899
0.7444944944944939 	299.9999999999758 	6.171132705932957e-12 	101324.9999999898
0.7469969969969963 	299.9999999999635 	4.591044743352252e-12 	101324.9999999898
0.7494994994994989 	299.9999999999325 	6.210871479383956e-12 	101324.99999999
0.7520020020020015 	299.9999999999681 	3.137628164498644e-12 	101324.9999999901
0.7545045045045039 	299.999999999961 	5.768475289399553e-12 	101324.99999999
0.7570070070070062 	299.9999999999274 	3.065462772241372e-12 	101324.99999999
0.7595095095095092 	299.9999999999249 	4.991856361638392e-12 	101324.9999999901
0.7620120120120112 	300.0000000000112 	4.094979286875425e-12 	101324.99999999
0.7645145145145138 	299.9999999999843 	4.897352405423016e-12 	101324.9999999899
0.7670170170170165 	299.9999999999192 	5.575410831966024e-12 	101324.9999999898
0.7695195195195191 	299.9999999999168 	4.792443109159276e-12 	101324.9999999899
0.7720220220220213 	299.9999999999227 	6.814638707053276e-12 	101324.99999999
0.7745245245245239 	299.9999999999158 	5.07431345327579e-12 	101324.9999999898
0.7770270270270263 	299.9999999999565 	6.886273211967049e-12 	101324.9999999895
0.779529529529529 	299.9999999999774 	5.565477921425359e-12 	101324.9999999893
0.7820320320320313 	299.9999999999677 	5.76010287687344e-12 	101324.9999999894
0.784534534534534 	300.0000000000027 	5.434846948031848e-12 	101324.9999999894
0.7870370370370364 	299.9999999999909 	4.758041767305304e-12 	101324.9999999893
0.7895395395395389 	299.9999999999741 	5.750027461331699e-12 	101324.9999999892
0.7920420420420413 	299.999999999966 	4.546880183013888e-12 	101324.9999999894
0.794544544544544 	299.9999999999618 	6.24728882179966e-12 	101324.9999999898
0.7970470470470463 	299.9999999999997 	3.501576053194546e-12 	101324.9999999899
0.799549549549549 	299.9999999999822 	6.588272031578091e-12 	101324.9999999899
0.8020520520520515 	299.9999999999822 	4.276060463008893e-12 	101324.9999999898
0.8045545545545539 	299.9999999999328 	6.707976665877162e-12 	101324.9999999897
0.8070570570570563 	299.9999999999682 	5.698799950080525e-12 	101324.9999999897
0.8095595595595589 	299.9999999999436 	6.525807851297746e-12 	101324.9999999898
0.8120620620620614 	299.9999999999305 	6.255552268549608e-12 	101324.99999999
0.8145645645645638 	300.0000000000032 	5.867792222826051e-12 	101324.9999999903
0.8170670670670666 	299.9999999999981 	6.116203504005412e-12 	101324.9999999904
0.8195695695695689 	299.9999999999738 	4.756520957520087e-12 	101324.9999999905
0.8220720720720714 	299.9999999999334 	6.687454609214676e-12 	101324.9999999905
0.8245745745745739 	299.9999999999851 	4.696780681658761e-12 	101324.9999999905
0.8270770770770765 	299.9999999999589 	6.294723952032812e-12 	101324.9999999904
0.8295795795795788 	299.9999999999409 	5.629112954747297e-12 	101324.9999999903
0.8320820820820815 	300.000000000013 	6.316989240223935e-12 	101324.9999999902
0.834584584584584 	300.0000000000067 	5.442201579444801e-12 	101324.9999999903
0.8370870870870865 	299.9999999999628 	5.004071357301037e-12 	101324.9999999903
0.8395895895895891 	299.9999999999168 	5.43702065664528e-12 	101324.9999999902
0.8420920920920915 	299.9999999999379 	4.99493492795017e-12 	101324.9999999901
0.844594594594594 	299.9999999999292 	5.449561402199752e-12 	101324.9999999901
0.8470970970970964 	299.9999999999359 	5.642264325792817e-12 	101324.9999999901
0.8495995995995991 	299.9999999999829 	5.554155832724189e-12 	101324.9999999903
0.8521021021021015 	299.9999999999732 	5.890630770067903e-12 	101324.9999999906
0.8546046046046039 	299.9999999999698 	5.475648647271687e-12 	101324.9999999908
0.8571071071071066 	299.9999999999943 	7.116814624476866e-12 	101324.9999999909
0.8596096096096089 	299.9999999999529 	6.126914841521965e-12 	101324.9999999911
0.8621121121121116 	299.9999999999212 	9.066361548113354e-12 	101324.9999999912
0.8646146146146139 	299.9999999999969 	6.98488609580686e-12 	101324.9999999912
0.8671171171171166 	299.9999999999662 	7.897719976351126e-12 	101324.9999999913
0.8696196196196189 	299.9999999999311 	6.578330577411537e-12 	101324.9999999914
0.8721221221221216 	299.9999999999815 	6.790493070632018e-12 	101324.9999999913
0.874624624624624 	299.9999999999956 	6.288319115449992e-12 	101324.9999999915
0.8771271271271264 	299.9999999999955 	6.293008299095311e-12 	101324.9999999916
0.879629629629629 	300.0000000000138 	7.01594289299742e-12 	101324.9999999916
0.8821321321321317 	299.9999999999778 	5.830250993564231e-12 	101324.9999999918
0.8846346346346339 	299.9999999999126 	7.945805465489893e-12 	101324.999999992
0.8871371371371364 	299.9999999999524 	5.709917295257429e-12 	101324.9999999919
0.8896396396396391 	299.999999999964 	7.241592456944713e-12 	101324.9999999917
0.8921421421421414 	299.9999999999625 	5.856186499228627e-12 	101324.9999999916
0.8946446446446441 	299.9999999999761 	6.373873842179067e-12 	101324.9999999915
0.8971471471471464 	300.0000000000048 	5.655133461604021e-12 	101324.9999999916
0.8996496496496489 	299.9999999999823 	5.40007565343416e-12 	101324.9999999915
0.9021521521521517 	299.9999999999674 	5.788762853785999e-12 	101324.9999999913
0.9046546546546541 	299.9999999999995 	4.515323120940778e-12 	101324.9999999914
0.9071571571571564 	299.9999999999499 	4.93154031269361e-12 	101324.9999999916
0.9096596596596589 	299.999999999942 	5.262122250141125e-12 	101324.9999999918
0.9121621621621616 	299.9999999999994 	5.943448081599603e-12 	101324.9999999919
0.9146646646646639 	299.9999999999692 	6.318338206856147e-12 	101324.9999999919
0.9171671671671666 	299.999999999945 	6.163503454280929e-12 	101324.999999992
0.9196696696696689 	300.0000000000006 	6.916058648975644e-12 	101324.9999999921
0.9221721721721714 	299.9999999999858 	5.256682601292559e-12 	101324.999999992
0.9246746746746741 	299.9999999999269 	7.618954653029676e-12 	101324.9999999919
0.9271771771771765 	299.9999999999465 	5.510818896127512e-12 	101324.9999999918
0.9296796796796791 	299.999999999988 	7.398033451335485e-12 	101324.9999999918
0.9321821821821816 	299.9999999999606 	6.369667763398021e-12 	101324.9999999917
0.9346846846846838 	299.9999999999453 	7.501332039739369e-12 	101324.9999999916
0.9371871871871866 	300.0000000000102 	6.828827016635687e-12 	101324.9999999915
0.9396896896896891 	300.0000000000052 	6.721214910221236e-12 	101324.9999999915
0.9421921921921914 	299.9999999999991 	6.994279838455504e-12 	101324.9999999915
0.9446946946946939 	299.9999999999632 	6.129102271095978e-12 	101324.9999999915
0.9471971971971965 	299.9999999999195 	8.427256605639947e-12 	101324.9999999916
0.9496996996996991 	299.9999999999569 	6.974824187263862e-12 	101324.9999999916
0.9522022022022016 	299.9999999999725 	8.40478484786497e-12 	101324.9999999917
0.9547047047047038 	299.9999999999794 	6.904568129156981e-12 	101324.9999999918
0.9572072072072064 	299.9999999999594 	7.17860329872973e-12 	101324.9999999917
0.9597097097097093 	299.9999999999547 	6.470247710092984e-12 	101324.9999999916
0.9622122122122114 	299.9999999999531 	6.060216778645144e-12 	101324.9999999917
0.964714714714714 	299.9999999999418 	6.607018480318549e-12 	101324.9999999917
0.9672172172172167 	299.999999999944 	6.052952413417281e-12 	101324.9999999916
0.969719719719719 	299.9999999999792 	6.975299564012537e-12 	101324.9999999917
0.9722222222222214 	299.9999999999658 	6.737337647468325e-12 	101324.9999999917
0.9747247247247239 	299.9999999999649 	7.022073493395115e-12 	101324.9999999919
0.9772272272272267 	300.0000000000073 	7.419343662196086e-12 	101324.9999999921
0.9797297297297292 	299.9999999999804 	6.906300321597145e-12 	101324.9999999921
0.9822322322322313 	299.9999999999799 	7.6255213499299e-12 	101324.999999992
0.9847347347347344 	299.9999999999798 	6.39867207370121e-12 	101324.9999999921
0.9872372372372363 	299.9999999999292 	9.018237380643266e-12 	101324.9999999923
0.9897397397397389 	299.9999999999596 	7.174541960102617e-12 	101324.9999999922
0.9922422422422417 	299.9999999999445 	9.194977340342595e-12 	101324.9999999922
0.9947447447447441 	299.9999999999499 	8.026745641621058e-12 	101324.999999992
0.9972472472472468 	299.9999999999558 	8.698759089613695e-12 	101324.999999992
0.999749749749749 	299.9999999999626 	7.983421145793071e-12 	101324.9999999921
1.002252252252252 	299.9999999999815 	8.227614434303469e-12 	101324.9999999921
1.004754754754754 	299.9999999999943 	8.269771991326566e-12 	101324.999999992
1.007257257257256 	299.9999999999718 	7.042668912863063e-12 	101324.9999999919
1.009759759759759 	299.9999999999542 	8.107439182411515e-12 	101324.9999999918
1.012262262262261 	299.999999999938 	6.0446473544514e-12 	101324.9999999919
1.014764764764764 	299.9999999999202 	7.918681191195544e-12 	101324.9999999919
1.017267267267267 	299.9999999999122 	6.935459163902336e-12 	101324.9999999919
1.019769769769769 	299.9999999999551 	7.669458452490446e-12 	101324.999999992
1.022272272272272 	299.9999999999736 	7.348444284148448e-12 	101324.9999999921
1.024774774774774 	299.9999999999825 	7.794521911457074e-12 	101324.999999992
1.027277277277277 	299.9999999999746 	8.727901584717727e-12 	101324.9999999923
1.029779779779779 	300.0000000000019 	8.095182674407328e-12 	101324.9999999924
1.032282282282282 	300.0000000000045 	8.814073636416186e-12 	101324.9999999923
1.034784784784784 	299.9999999999943 	8.495544176232798e-12 	101324.9999999923
1.037287287287286 	299.9999999999587 	8.674327150282281e-12 	101324.9999999925
1.039789789789789 	299.9999999999654 	8.243121541981529e-12 	101324.9999999928
1.042292292292291 	300.0000000000068 	7.68755114984279e-12 	101324.9999999928
1.044794794794794 	300.0000000000247 	7.708451391899349e-12 	101324.9999999927
1.047297297297296 	300.000000000039 	6.592950179082281e-12 	101324.9999999928
1.049799799799799 	299.9999999999915 	8.113357679435921e-12 	101324.9999999928
1.052302302302302 	299.9999999999488 	6.343900416141714e-12 	101324.9999999928
1.054804804804804 	299.9999999999214 	8.23933152318683e-12 	101324.9999999928
1.057307307307306 	299.9999999999119 	7.53685866523292e-12 	101324.9999999928
1.059809809809809 	299.9999999999524 	8.630279835020759e-12 	101324.9999999928
1.062312312312312 	299.9999999999467 	7.965912815117214e-12 	101324.9999999926
1.064814814814814 	299.999999999943 	8.446068579142015e-12 	101324.9999999925
1.067317317317317 	299.9999999999155 	8.170905336816667e-12 	101324.9999999923
1.069819819819819 	299.9999999999112 	7.742762138786708e-12 	101324.9999999922
1.072322322322321 	299.9999999999822 	8.855430451018682e-12 	101324.9999999922
1.074824824824824 	300.0000000000047 	7.03719652228097e-12 	101324.9999999923
1.077327327327327 	300.0000000000279 	8.079146495897699e-12 	101324.9999999923
1.079829829829829 	300.0000000000426 	6.984915415231479e-12 	101324.9999999923
1.082332332332332 	299.999999999995 	7.423080308068864e-12 	101324.9999999924
1.084834834834834 	299.9999999999632 	7.166035337898443e-12 	101324.9999999925
1.087337337337337 	299.9999999999297 	7.03498753847184e-12 	101324.9999999924
1.089839839839839 	299.9999999999186 	8.377605272647625e-12 	101324.9999999923
1.092342342342342 	299.9999999999589 	7.396651540846932e-12 	101324.9999999922
1.094844844844844 	299.9999999999595 	9.053592904666451e-12 	101324.9999999921
1.097347347347347 	299.9999999999262 	7.873204141515629e-12 	101324.999999992
1.099849849849849 	299.9999999999147 	1.051142682897479e-11 	101324.9999999919
1.102352352352352 	299.9999999999469 	8.62658210827319e-12 	101324.9999999919
1.104854854854854 	299.9999999999671 	1.095218936200933e-11 	101324.9999999919
1.107357357357357 	299.999999999947 	9.304634742708592e-12 	101324.999999992
1.109859859859859 	299.999999999938 	1.048489271305937e-11 	101324.9999999923
1.112362362362362 	300.000000000015 	9.244187603594629e-12 	101324.9999999924
1.114864864864865 	300.0000000000146 	9.491141162011149e-12 	101324.9999999925
1.117367367367367 	299.9999999999554 	9.752444778145028e-12 	101324.9999999925
1.119869869869869 	299.9999999999098 	8.718494941178756e-12 	101324.9999999924
1.122372372372372 	299.9999999999428 	1.000996665873521e-11 	101324.9999999923
1.124874874874874 	299.9999999999392 	8.969380655350742e-12 	101324.999999992
1.127377377377377 	299.9999999999512 	9.894497580272781e-12 	101324.999999992
1.129879879879879 	300.0000000000168 	9.240388287569521e-12 	101324.9999999922
1.132382382382382 	300.0000000000411 	9.323843855364466e-12 	101324.9999999924
1.134884884884884 	300.000000000009 	8.529812085714038e-12 	101324.9999999925
1.137387387387387 	300.0000000000102 	8.168601477971632e-12 	101324.9999999926
1.139889889889889 	299.9999999999532 	8.652557309879832e-12 	101324.9999999928
1.142392392392392 	299.9999999999488 	7.285387221838616e-12 	101324.9999999928
1.144894894894894 	300.0000000000161 	8.434886893705547e-12 	101324.9999999927
1.147397397397397 	299.9999999999951 	7.057310601099562e-12 	101324.9999999926
1.149899899899899 	299.9999999999282 	8.137848546098923e-12 	101324.9999999926
1.152402402402402 	299.9999999999119 	7.71133426536538e-12 	101324.9999999926
1.154904904904904 	299.9999999999513 	8.574880867131703e-12 	101324.9999999927
1.157407407407407 	299.9999999999515 	8.220005503063187e-12 	101324.9999999926
1.159909909909909 	299.9999999999213 	8.834611167394343e-12 	101324.9999999924
1.162412412412412 	299.9999999999189 	1.061721348877744e-11 	101324.9999999923
1.164914914914914 	299.9999999999494 	9.567740639861165e-12 	101324.9999999923
1.167417417417417 	299.999999999958 	1.061359453092737e-11 	101324.9999999923
1.169919919919919 	300.0000000000128 	9.315516280711993e-12 	101324.9999999925
1.172422422422422 	300.000000000042 	1.006956281973077e-11 	101324.9999999926
1.174924924924925 	299.9999999999844 	9.084131517297148e-12 	101324.9999999927
1.177427427427427 	299.999999999949 	9.633176862209249e-12 	101324.9999999927
1.179929929929929 	300.0000000000074 	1.017321306882565e-11 	101324.9999999928
1.182432432432432 	300.0000000000424 	9.063404971882813e-12 	101324.9999999927
1.184934934934934 	300.0000000000019 	1.030627242030839e-11 	101324.9999999926
1.187437437437437 	299.9999999999549 	9.41292881325619e-12 	101324.9999999926
1.189939939939939 	299.9999999999402 	1.048321858714132e-11 	101324.9999999924
1.192442442442442 	299.9999999999128 	9.817183387845118e-12 	101324.9999999923
1.194944944944944 	299.9999999999212 	1.103546365508023e-11 	101324.9999999922
1.197447447447447 	299.9999999999868 	1.064067156341828e-11 	101324.9999999921
1.199949949949949 	300.0000000000057 	1.088694975567751e-11 	101324.9999999919
1.202452452452452 	299.9999999999434 	1.214468219914154e-11 	101324.9999999918
1.204954954954955 	299.9999999999357 	1.109249298321949e-11 	101324.9999999916
1.207457457457457 	299.999999999967 	1.189260206721716e-11 	101324.9999999917
1.20995995995996 	299.9999999999635 	1.084232246873464e-11 	101324.9999999918
1.212462462462462 	299.9999999999802 	1.220218518064955e-11 	101324.9999999919
1.214964964964964 	299.9999999999843 	1.19132891868129e-11 	101324.9999999918
1.217467467467467 	299.9999999999831 	1.302149356817671e-11 	101324.9999999918
1.219969969969969 	299.9999999999639 	1.20690085851792e-11 	101324.9999999919
1.222472472472472 	300.0000000000156 	1.231549869652699e-11 	101324.9999999918
1.224974974974975 	300.0000000000467 	1.276241390710651e-11 	101324.9999999916
1.227477477477477 	299.9999999999886 	1.171670220671785e-11 	101324.9999999915
1.229979979979979 	299.9999999999692 	1.293909141121012e-11 	101324.9999999914
1.232482482482482 	299.9999999999401 	1.149460019224043e-11 	101324.9999999914
1.234984984984984 	299.9999999999378 	1.244490816409786e-11 	101324.9999999916
1.237487487487487 	299.9999999999633 	1.08991017443107e-11 	101324.9999999918
1.239989989989989 	299.9999999999684 	1.117896697258166e-11 	101324.9999999918
1.242492492492492 	300.0000000000035 	1.14486141870343e-11 	101324.9999999919
1.244994994994994 	299.9999999999739 	9.899751209340555e-12 	101324.9999999921
1.247497497497497 	299.9999999999739 	1.043298194051264e-11 	101324.9999999924
1.249999999999999 	300 	9.627270417408634e-12 	101324.9999999925
