-1.25 	300 	0.1034853052093823 	101282.7836037249
-1.247497497497497 	299.9634622367187 	0.1025793056573557 	101283.1476854309
-1.244994994994995 	299.9648939580039 	0.1015396184288719 	101283.5229234907
-1.242492492492492 	299.9652344414305 	0.1007884266984629 	101283.9057386809
-1.23998998998999 	299.9655644515918 	0.09973208230541583 	101284.2965693709
-1.237487487487487 	299.9659012670605 	0.09879538218452846 	101284.6946703832
-1.234984984984985 	299.9662440510793 	0.09780029596253854 	101285.0998030621
-1.232482482482482 	299.9665933202599 	0.09678498751658664 	101285.5126004435
-1.22997997997998 	299.9669487405538 	0.09575399720394501 	101285.9326690729
-1.227477477477477 	299.9673103653469 	0.09470864808684903 	101286.3600721162
-1.224974974974975 	299.9676780986692 	0.09364546771398734 	101286.794695903
-1.222472472472472 	299.9680513595114 	0.09256293669882902 	101287.2358537622
-1.21996996996997 	299.9684306047874 	0.09146000131349799 	101287.6840854699
-1.217467467467467 	299.9688160064013 	0.09034073806186796 	101288.1395940945
-1.214964964964965 	299.9692070235793 	0.08921320499869843 	101288.6017421357
-1.212462462462462 	299.9696034049678 	0.08806770341213993 	101289.0702316861
-1.20995995995996 	299.9700053895786 	0.0869025291379954 	101289.5453448831
-1.207457457457457 	299.9704130011197 	0.08571771830521613 	101290.0271098976
-1.204954954954955 	299.9708262735422 	0.08451703364861418 	101290.5155669497
-1.202452452452452 	299.9712452266239 	0.08330814975745161 	101291.0107404015
-1.19994994994995 	299.9716689694727 	0.0820823437277847 	101291.5115762337
-1.197447447447447 	299.9720977825508 	0.08083860030439813 	101292.0184058776
-1.194944944944945 	299.972532142939 	0.07957724147226443 	101292.5317933558
-1.192442442442442 	299.972971330947 	0.07830250184854448 	101293.0508885011
-1.18993993993994 	299.9734153767698 	0.07702078637403231 	101293.5757282815
-1.187437437437437 	299.9738642547185 	0.07572322455921394 	101294.1062813408
-1.184934934934935 	299.9743177360421 	0.07440880096518215 	101294.6422770168
-1.182432432432432 	299.9747765197981 	0.07307874330609371 	101295.1845413182
-1.17992992992993 	299.9752403378421 	0.07173482652013982 	101295.732757419
-1.177427427427427 	299.9757080563028 	0.07038011227078067 	101296.285586936
-1.174924924924925 	299.9761801710935 	0.06901092130455122 	101296.8436149245
-1.172422422422422 	299.9766570625358 	0.06762919772940211 	101297.4072890106
-1.16991991991992 	299.9771379804534 	0.06623602154234265 	101297.9757232521
-1.167417417417417 	299.9776231676548 	0.06483103858533322 	101298.5492072183
-1.164914914914915 	299.9781127127859 	0.06341478721701092 	101299.1278473867
-1.162412412412412 	299.9786054100568 	0.06198688946952547 	101299.7102168226
-1.15990990990991 	299.9791020835505 	0.06054845468507784 	101300.297286298
-1.157407407407407 	299.9796041233867 	0.0590966014505732 	101300.8906965414
-1.154904904904904 	299.9801095425543 	0.05763230512471835 	101301.4881009755
-1.152402402402403 	299.98061695558 	0.05615830026818362 	101302.0878679302
-1.1498998998999 	299.9811284374525 	0.05467301895195061 	101302.6924532766
-1.147397397397397 	299.9816448879437 	0.05317771927503769 	101303.3029176185
-1.144894894894895 	299.9821644270519 	0.05167531807521299 	101303.9170334321
-1.142392392392392 	299.9826856730054 	0.05016670463636551 	101304.5331651293
-1.13988988988989 	299.9832098296109 	0.04864564801171679 	101305.1527340407
-1.137387387387387 	299.9837390181131 	0.04711187779056686 	101305.7782459645
-1.134884884884885 	299.9842720452949 	0.04557308846729986 	101306.408294184
-1.132382382382382 	299.9848059353804 	0.04402791014357057 	101307.039365957
-1.12987987987988 	299.9853414559144 	0.04247366324110424 	101307.6723705235
-1.127377377377377 	299.9858806683046 	0.04090730461738852 	101308.309744743
-1.124874874874875 	299.9864232454169 	0.03933108845243907 	101308.9511011758
-1.122372372372372 	299.9869694372667 	0.03775216780476526 	101309.5967347195
-1.11986986986987 	299.987518299435 	0.03616711558202462 	101310.2455297294
-1.117367367367367 	299.9880674203139 	0.0345751956380271 	101310.8946343457
-1.114864864864865 	299.9886171176788 	0.03297744539964252 	101311.5444232504
-1.112362362362362 	299.9891688890913 	0.03137813560352432 	101312.1966679981
-1.10985985985986 	299.9897234063002 	0.02977616848415236 	101312.8521643252
-1.107357357357357 	299.9902829168833 	0.02815815972448373 	101313.5135663656
-1.104854854854855 	299.9908467856397 	0.0265246032928746 	101314.1801221234
-1.102352352352353 	299.9914114037082 	0.02488325627786434 	101314.8475637149
-1.09984984984985 	299.9919739096939 	0.02325103831602765 	101315.5125092161
-1.097347347347347 	299.9925333195002 	0.02163617030669633 	101316.1737995733
-1.094844844844845 	299.9930908878636 	0.02002024854588719 	101316.8329197932
-1.092342342342342 	299.9936526353754 	0.01839064625693657 	101317.4969852881
-1.08983983983984 	299.9942220998748 	0.01673951064493568 	101318.1701772459
-1.087337337337337 	299.9947981277911 	0.01507096863041946 	101318.8511290846
-1.084834834834835 	299.9953767681172 	0.01339993344033459 	101319.5351694814
-1.082332332332332 	299.995953720568 	0.01173121557573698 	101320.2172159937
-1.07982982982983 	299.9965261546222 	0.01007079583555039 	101320.8939233378
-1.077327327327327 	299.9970946190382 	0.00842241082810598 	101321.5659407809
-1.074824824824825 	299.9976594787585 	0.006785646517145826 	101322.2337013924
-1.072322322322323 	299.9982223119666 	0.005154520143422029 	101322.8990718817
-1.06981981981982 	299.9987871171189 	0.003517086673470561 	101323.56677869
-1.067317317317317 	299.9993572357196 	0.001865748622458262 	101324.2407715423
-1.064814814814815 	299.9999330797359 	0.0007871984258528131 	101324.9215346464
-1.062312312312312 	300.000511220166 	0.001473463694319715 	101325.6050131755
-1.05980980980981 	300.0010886113844 	0.003145711854422819 	101326.2876082763
-1.057307307307307 	300.0016645933136 	0.004814277664587895 	101326.9685404845
-1.054804804804805 	300.0022393304067 	0.006479285827588386 	101327.6480043261
-1.052302302302302 	300.0028130247583 	0.008141266358468966 	101328.3262387339
-1.0497997997998 	300.0033858046909 	0.009800581507109364 	101329.0033954971
-1.047297297297297 	300.0039577207195 	0.01145737940852163 	101329.6795340235
-1.044794794794795 	300.004528764113 	0.01311163950429028 	101330.3546438185
-1.042292292292292 	300.0050988863665 	0.01476322572614271 	101331.0286679326
-1.03978978978979 	300.0056680150804 	0.01641193115183705 	101331.7015208565
-1.037287287287287 	300.006236064432 	0.01805750755696241 	101332.3731005214
-1.034784784784785 	300.0068029405671 	0.01969968261654014 	101333.0432956803
-1.032282282282283 	300.0073685445466 	0.02133817214166852 	101333.7119901535
-1.02977977977978 	300.0079327755366 	0.02297268583639396 	101334.3790652216
-1.027277277277277 	300.0084955330815 	0.0246029291109674 	101335.0444009102
-1.024774774774775 	300.0090567158666 	0.02622860667022664 	101335.7078766962
-1.022272272272272 	300.0096162206931 	0.02784942341873825 	101336.3693718896
-1.01976976976977 	300.0101739443808 	0.02946508308800241 	101337.0287657967
-1.017267267267267 	300.0107297862527 	0.03107529017386584 	101337.6859378864
-1.014764764764765 	300.0112836466516 	0.03267975058921714 	101338.3407679037
-1.012262262262262 	300.0118354230349 	0.03427817017195641 	101338.9931359416
-1.00975975975976 	300.0123850113681 	0.03587025614065122 	101339.642922511
-1.007257257257257 	300.0129323109754 	0.03745571718342577 	101340.2900084979
-1.004754754754755 	300.0134772254071 	0.0390342621358005 	101340.9342752101
-1.002252252252252 	300.0140196570433 	0.04060560136144872 	101341.5756044593
-0.9997497497497498 	300.0145595026437 	0.04216944708025753 	101342.2138785581
-0.9972472472472473 	300.0150966578686 	0.04372551218854841 	101342.8489804182
-0.9947447447447449 	300.0156310250912 	0.04527351135689074 	101343.4807935624
-0.9922422422422421 	300.0161625136673 	0.04681316102957032 	101344.1092020678
-0.9897397397397399 	300.016691030788 	0.04834417833522718 	101344.7340906189
-0.9872372372372376 	300.0172164743471 	0.04986628245826966 	101345.3553444925
-0.9847347347347346 	300.0177387383218 	0.05137919449272229 	101345.9728496348
-0.9822322322322323 	300.018257723998 	0.05288263642881386 	101346.5864927492
-0.9797297297297296 	300.0187733445924 	0.05437633256345648 	101347.1961612135
-0.9772272272272275 	300.0192855170083 	0.05586000948318791 	101347.801743159
-0.9747247247247248 	300.0197941490415 	0.05733339459117495 	101348.4031274869
-0.9722222222222224 	300.0202991367403 	0.05879621749609354 	101349.00020379
-0.9697197197197196 	300.0208003743988 	0.06024821046899566 	101349.5928625115
-0.9672172172172175 	300.0212977673655 	0.06168910699452307 	101350.1809949394
-0.9647147147147147 	300.0217912352547 	0.06311864271145254 	101350.7644931437
-0.9622122122122124 	300.0222807027466 	0.06453655585296468 	101351.3432501286
-0.9597097097097099 	300.0227660865734 	0.0659425863036411 	101351.9171597112
-0.9572072072072073 	300.0232472895054 	0.06733647612056581 	101352.4861164743
-0.9547047047047047 	300.0237242074003 	0.06871796957401682 	101353.0500159585
-0.9522022022022023 	300.0241967407281 	0.07008681278178895 	101353.6087545665
-0.9496996996996998 	300.0246648035236 	0.0714427547548465 	101354.1622296571
-0.9471971971971973 	300.0251283226142 	0.07278554680914179 	101354.7103396709
-0.9446946946946947 	300.0255872285588 	0.07411494186021836 	101355.2529838342
-0.9421921921921923 	300.0260414463254 	0.07543069616194796 	101355.7900623522
-0.93968968968969 	300.0264908897934 	0.07673256874249106 	101356.3214767381
-0.9371871871871872 	300.0269354641443 	0.07802032043956486 	101356.8471295069
-0.9346846846846848 	300.0273750734788 	0.07929371525731541 	101357.366924191
-0.9321821821821823 	300.0278096275881 	0.08055251995850851 	101357.8807654625
-0.9296796796796799 	300.0282390454548 	0.0817965033255334 	101358.3885588805
-0.9271771771771771 	300.028663254933 	0.08302543740245272 	101358.8902112412
-0.9246746746746748 	300.0290821899354 	0.08423909729599176 	101359.3856307734
-0.9221721721721724 	300.0294957858112 	0.08543726036220176 	101359.8747265698
-0.9196696696696698 	300.0299039747675 	0.08661970712610773 	101360.3574088073
-0.9171671671671672 	300.0303066845703 	0.0877862209248829 	101360.8335890679
-0.9146646646646649 	300.0307038384497 	0.08893658769661278 	101361.3031798426
-0.9121621621621623 	300.0310953575953 	0.09007059670093248 	101361.766094832
-0.9096596596596597 	300.0314811643386 	0.09118804016155717 	101362.2222493812
-0.9071571571571573 	300.0318611825832 	0.09228871332630209 	101362.6715598237
-0.9046546546546547 	300.0322353385888 	0.09337241459128655 	101363.1139435653
-0.9021521521521524 	300.0326035613792 	0.09443894504124919 	101363.5493195678
-0.8996496496496498 	300.0329657823609 	0.09548810868177195 	101363.9776077228
-0.8971471471471473 	300.0333219348508 	0.09651971288688216 	101364.398729051
-0.894644644644645 	300.0336719542923 	0.09753356872112715 	101364.8126066078
-0.892142142142142 	300.0340157778615 	0.09852949091194725 	101365.2191647483
-0.8896396396396397 	300.0343533432949 	0.09950729683930205 	101365.618328599
-0.8871371371371374 	300.0346845895978 	0.1004668068097084 	101366.0100249088
-0.8846346346346349 	300.0350094570597 	0.1014078447109178 	101366.394181761
-0.8821321321321324 	300.0353278861861 	0.1023302371519383 	101366.7707280673
-0.8796296296296297 	300.0356398190976 	0.1032338145475242 	101367.1395946238
-0.8771271271271271 	300.035945199265 	0.1041184119514905 	101367.5007141534
-0.8746246246246248 	300.0362439708455 	0.104983867063982 	101367.8540201506
-0.8721221221221224 	300.0365360789796 	0.1058300205492207 	101368.1994474971
-0.8696196196196196 	300.0368214705206 	0.1066567180706504 	101368.5369332534
-0.8671171171171175 	300.0371000934559 	0.1074638081477371 	101368.866415543
-0.8646146146146148 	300.0373718960151 	0.1082511416654829 	101369.1878332663
-0.8621121121121121 	300.0376368283785 	0.1090185737936126 	101369.5011272234
-0.8596096096096097 	300.0378948419236 	0.1097659631303353 	101369.8062398176
-0.857107107107107 	300.0381458884784 	0.1104931712636735 	101370.1031143079
-0.8546046046046049 	300.0383899219347 	0.1112000642188459 	101370.3916957758
-0.8521021021021022 	300.0386268978936 	0.1118865130404216 	101370.6719318255
-0.8495995995995997 	300.0388567732459 	0.1125523928828948 	101370.9437714629
-0.8470970970970974 	300.0390795055299 	0.1131975811981937 	101371.2071643355
-0.8445945945945946 	300.0392950535543 	0.1138219586058261 	101371.4620617209
-0.8420920920920922 	300.0395033782466 	0.1144254111717877 	101371.7084172029
-0.8395895895895897 	300.0397044410416 	0.1150078280904687 	101371.9461854463
-0.8370870870870872 	300.0398982042931 	0.1155691003489078 	101372.1753217289
-0.8345845845845846 	300.0400846325905 	0.116109125479278 	101372.3957840875
-0.8320820820820823 	300.0402636927911 	0.1166278068226888 	101372.6075334479
-0.8295795795795798 	300.0404353515426 	0.1171250470435806 	101372.8105300905
-0.8270770770770772 	300.0405995750891 	0.1176007506279675 	101373.0047342096
-0.8245745745745746 	300.0407563339566 	0.1180548316359536 	101373.1901109011
-0.8220720720720721 	300.0409056010807 	0.1184872092521106 	101373.3666280904
-0.8195695695695699 	300.0410473466395 	0.1188977990179727 	101373.5342505084
-0.817067067067067 	300.0411815423367 	0.1192865214715552 	101373.6929446563
-0.8145645645645651 	300.04130816708 	0.1196533124397279 	101373.8426856135
-0.8120620620620621 	300.0414271996574 	0.119998107578152 	101373.9834480951
-0.8095595595595597 	300.0415386124023 	0.1203208318411794 	101374.1151995058
-0.8070570570570572 	300.0416423830697 	0.1206214235655128 	101374.2379136248
-0.8045545545545546 	300.0417385001443 	0.1208998419377559 	101374.3515765457
-0.8020520520520523 	300.0418269457862 	0.1211560336710707 	101374.4561672841
-0.7995495495495494 	300.0419076932019 	0.1213899306496914 	101374.5516540863
-0.7970470470470474 	300.0419807283796 	0.1216014931492452 	101374.6380204481
-0.7945445445445446 	300.0420460505103 	0.1217907064685529 	101374.7152653915
-0.7920420420420423 	300.0421036437062 	0.1219575258214265 	101374.7833700121
-0.7895395395395397 	300.0421534807217 	0.1221018881117292 	101374.8423022105
-0.7870370370370371 	300.0421955591423 	0.1222237824493035 	101374.8920590335
-0.7845345345345348 	300.0422298920371 	0.1223232275982567 	101374.9326559438
-0.7820320320320323 	300.0422564632608 	0.1224001821892228 	101374.9640738458
-0.7795295295295296 	300.0422752418489 	0.1224545798902666 	101374.9862761433
-0.7770270270270272 	300.0422862373582 	0.1224864402170808 	101374.9992741339
-0.7745245245245247 	300.0422894802037 	0.1224958198116776 	101375.0031031854
-0.7720220220220222 	300.0422849506144 	0.1224826734004618 	101374.997740499
-0.7695195195195199 	300.0422726054164 	0.1224469171451755 	101374.9831360369
-0.767017017017017 	300.0422524686257 	0.1223886056143912 	101374.9593169103
-0.7645145145145147 	300.0422245977497 	0.1223078605733199 	101374.9263511104
-0.7620120120120122 	300.0421889766558 	0.1222046466603432 	101374.8842198091
-0.7595095095095097 	300.0421455430845 	0.1220788393760484 	101374.832849451
-0.7570070070070072 	300.0420943231684 	0.1219305070459024 	101374.7722710124
-0.7545045045045048 	300.0420354139673 	0.1217598594810914 	101374.7025992273
-0.7520020020020022 	300.0419688161294 	0.1215668948880244 	101374.6238348571
-0.7494994994994997 	300.0418944305388 	0.1213514106803796 	101374.5358604195
-0.7469969969969972 	300.0418122608372 	0.1211134383975776 	101374.4386805544
-0.7444944944944945 	300.0417224565934 	0.1208533139962659 	101374.332472404
-0.7419919919919924 	300.0416250758492 	0.1205711589778003 	101374.2173044594
-0.7394894894894897 	300.04151997975 	0.120266676683145 	101374.0930123542
-0.7369869869869872 	300.0414070944136 	0.119939735882359 	101373.9595085584
-0.7344844844844846 	300.0412866062287 	0.1195907734705906 	101373.8170137577
-0.7319819819819822 	300.0411587018024 	0.1192202005138729 	101373.6657486491
-0.7294794794794797 	300.041023253208 	0.1188277324789389 	101373.5055622569
-0.7269769769769773 	300.0408800308263 	0.1184128898993087 	101373.3361829955
-0.7244744744744747 	300.04072915274 	0.1179759809633455 	101373.1577504791
-0.721971971971972 	300.0405709927931 	0.1175178542205834 	101372.9707064755
-0.7194694694694695 	300.0404056072068 	0.1170386178597166 	101372.7751172023
-0.7169669669669674 	300.0402326148528 	0.1165374225029003 	101372.5705324991
-0.7144644644644647 	300.0400518313922 	0.1160139081396951 	101372.3567349773
-0.711961961961962 	300.0398636898929 	0.1154691047195101 	101372.1342370393
-0.7094594594594597 	300.0396686812357 	0.1149041179523826 	101371.9036185186
-0.7069569569569573 	300.0394665861694 	0.1143184185612722 	101371.6646192047
-0.7044544544544545 	300.0392567543396 	0.1137105499067189 	101371.4164701419
-0.7019519519519523 	300.0390391566884 	0.1130805352768408 	101371.159138162
-0.6994494494494495 	300.0388146234779 	0.1124303423379684 	101370.8936058964
-0.6969469469469471 	300.0385837388845 	0.1117612897201349 	101370.6205637159
-0.6944444444444446 	300.0383459225647 	0.111071987026297 	101370.3393245321
-0.6919419419419421 	300.0381001758464 	0.1103601541162481 	101370.0487070256
-0.6894394394394396 	300.0378466153341 	0.1096261785393407 	101369.7488498464
-0.6869369369369374 	300.0375865819778 	0.1088732612064239 	101369.4413387522
-0.6844344344344344 	300.0373209271115 	0.1081033468648218 	101369.1271802404
-0.6819319319319321 	300.0370487277927 	0.107314186949219 	101368.8052828291
-0.6794294294294296 	300.0367683739094 	0.106502021723774 	101368.4737432811
-0.6769269269269272 	300.0364798268382 	0.1056669181947112 	101368.1325172556
-0.6744244244244245 	300.036185028222 	0.1048136051121595 	101367.7839006693
-0.6719219219219222 	300.0358856188407 	0.1039459443180968 	101367.429832082
-0.6694194194194195 	300.0355807143019 	0.1030616853666791 	101367.0692635935
-0.6669169169169172 	300.0352677434514 	0.1021546375967535 	101366.6991551067
-0.6644144144144146 	300.0349456496024 	0.1012224218734024 	101366.31825971
-0.661911911911912 	300.0346165862859 	0.1002704360239673 	101365.929126127
-0.6594094094094097 	300.034283740283 	0.09930642868349827 	101365.5355225748
-0.656906906906907 	300.0339475548478 	0.0983313229154411 	101365.1379710339
-0.6544044044044046 	300.0336048453437 	0.09733721984248886 	101364.7327040564
-0.6519019019019021 	300.0332522130276 	0.0963158854069326 	101364.3157037898
-0.6493993993993996 	300.0328901468866 	0.09526876742247428 	101363.8875508435
-0.6468968968968971 	300.0325230631819 	0.09420691511586268 	101363.4534680673
-0.6443943943943946 	300.0321548228364 	0.09313980001521865 	101363.018018416
-0.6418918918918921 	300.0317843719775 	0.09206459205295549 	101362.5799521457
-0.6393893893893897 	300.0314063679804 	0.0909678954357632 	101362.1329511693
-0.6368868868868871 	300.0310165469382 	0.08983922355675966 	101361.6719769605
-0.6343843843843846 	300.0306164817239 	0.08868280541848393 	101361.1988939678
-0.6318818818818821 	300.0302126729065 	0.08751512931896607 	101360.7213906738
-0.6293793793793795 	300.0298104780684 	0.08634959078562159 	101360.2457991074
-0.6268768768768773 	300.0294086637847 	0.08518283008123202 	101359.7706551263
-0.6243743743743745 	300.0289999525568 	0.0839964611518873 	101359.2874391018
-0.6218718718718721 	300.0285777597241 	0.08277355952303209 	101358.7882194851
-0.6193693693693696 	300.0281423973353 	0.08151512813168819 	101358.2733285529
-0.6168668668668671 	300.0277014446134 	0.08024110055176188 	101357.7518911569
-0.6143643643643645 	300.0272637612433 	0.07897409435332099 	101357.2343509933
-0.6118618618618621 	300.0268315998987 	0.07771963136982857 	101356.7233399089
-0.6093593593593596 	300.0263981901762 	0.0764600559985 	101356.2108480103
-0.6068568568568571 	300.0259529329673 	0.07516796976001514 	101355.684343522
-0.6043543543543546 	300.0254900525392 	0.07382862610434097 	101355.1370027823
-0.6018518518518521 	300.0250137325698 	0.07245317108145968 	101354.5737788449
-0.5993493493493496 	300.0245354926448 	0.07107174397403056 	101354.0082946775
-0.5968468468468471 	300.0240656862269 	0.06971131143058766 	101353.4527880602
-0.5943443443443446 	300.0236055830907 	0.06837500627024924 	101352.9087531619
-0.591841841841842 	300.0231459964083 	0.06703854824840441 	101352.3653225017
-0.5893393393393397 	300.0226734880521 	0.06566656684663261 	101351.8066076268
-0.5868368368368371 	300.0221797631988 	0.06423735506356207 	101351.2228072156
-0.5843343343343346 	300.0216677380646 	0.06275885928335886 	101350.617377338
-0.5818318318318321 	300.0211501293581 	0.06126492555203871 	101350.0053580284
-0.5793293293293297 	300.0206415040702 	0.05979425289269125 	101349.4039705646
-0.5768268268268271 	300.0201490339093 	0.05836584250564703 	101348.8216869834
-0.5743243243243245 	300.019667837993 	0.05696653373623989 	101348.2527285422
-0.5718218218218221 	300.0191836436172 	0.05555803976895381 	101347.6802162673
-0.5693193193193196 	300.0186809762556 	0.05409887350702364 	101347.0858565042
-0.5668168168168171 	300.0181520446956 	0.05256822840905014 	101346.4604452023
-0.5643143143143147 	300.0176013542324 	0.05097840689139391 	101345.8093174355
-0.5618118118118121 	300.0170436164825 	0.04936922665206686 	101345.1498718263
-0.5593093093093094 	300.0164962482413 	0.04778784134514905 	101344.5026995635
-0.5568068068068072 	300.0159705808672 	0.04626497676442619 	101343.8811912146
-0.5543043043043046 	300.0154662819377 	0.04479969781236012 	101343.2849450306
-0.551801801801802 	300.0149714767604 	0.04335957869556096 	101342.6999150206
-0.5492992992992995 	300.0144681112953 	0.04189523308148616 	101342.1047539945
-0.5467967967967969 	300.0139398392899 	0.04036190319096139 	101341.4801399237
-0.5442942942942947 	300.0133789797722 	0.0387385929044809 	101340.8169994607
-0.5417917917917919 	300.0127897798241 	0.03703707906522723 	101340.120362406
-0.5392892892892895 	300.0121868727954 	0.0352977306284627 	101339.4075353298
-0.536786786786787 	300.0115897865286 	0.03357448168628004 	101338.7016066183
-0.5342842842842846 	300.0110158702191 	0.03191539552927872 	101338.023084065
-0.531781781781782 	300.0104744020033 	0.03034628334434473 	101337.382929727
-0.5292792792792794 	300.0099637422198 	0.0288626525611785 	101336.7791970346
-0.526776776776777 	300.0094720761285 	0.02743159911439548 	101336.1979115695
-0.5242742742742745 	300.0089810581145 	0.02600179349188043 	101335.6173809266
-0.521771771771772 	300.0084708556135 	0.02451757200781475 	101335.014158802
-0.5192692692692695 	300.0079251075439 	0.02293292402871128 	101334.3689065534
-0.516766766766767 	300.0073346831047 	0.02122215121624276 	101333.6708353901
-0.5142642642642645 	300.0066995888363 	0.0193853089240235 	101332.919960511
-0.511761761761762 	300.0060288484228 	0.01744790624893491 	101332.1269564111
-0.5092592592592596 	300.0053385949867 	0.01545555960870031 	101331.3109007375
-0.506756756756757 	300.0046489547336 	0.01346525215091912 	101330.4955892061
-0.5042542542542544 	300.0039805186083 	0.01153552245523632 	101329.7053638291
-0.5017517517517521 	300.003351371075 	0.009718166363528059 	101328.961601665
-0.4992492492492494 	300.0027753594633 	0.008053113325467938 	101328.280669308
-0.496746746746747 	300.0022614606544 	0.006566434959957586 	101327.6731750798
-0.4942442442442445 	300.0018139117057 	0.005270624262776698 	101327.1441240164
-0.4917417417417421 	300.0014328378587 	0.004166337870091493 	101326.6936607475
-0.4892392392392395 	300.0011151465999 	0.003244926661113963 	101326.3181267701
-0.486736736736737 	300.0008554987239 	0.002491208313435874 	101326.0112083368
-0.4842342342342345 	300.0006472208884 	0.001886088229679882 	101325.7650152495
-0.481731731731732 	300.0004830784805 	0.001408788917714166 	101325.5709940751
-0.4792292292292296 	300.0003558708491 	0.001038577471064228 	101325.4206326011
-0.4767267267267268 	300.0002588485123 	0.0007559784817229592 	101325.3059518396
-0.4742242242242246 	300.0001859679123 	0.0005435222935681342 	101325.2198073487
-0.471721721721722 	300.0001320141894 	0.0003861126653349473 	101325.1560349728
-0.4692192192192195 	300.0000926269253 	0.0002711082112239868 	101325.1094802242
-0.4667167167167169 	300.0000642573638 	0.000188208279452577 	101325.0759484634
-0.4642142142142145 	300.0000440866946 	0.0001292201812647199 	101325.0521074896
-0.461711711711712 	300.0000299233947 	8.776854285754798e-05 	101325.0353671874
-0.4592092092092094 	300.0000200977817 	5.899010505388478e-05 	101325.0237539046
-0.456706706706707 	300.0000133607171 	3.92428107639055e-05 	101325.0157911022
-0.4542042042042045 	300.0000087932708 	2.584548928143561e-05 	101325.0103928818
-0.451701701701702 	300.0000057308628 	1.685586907684783e-05 	101325.0067733493
-0.4491991991991995 	300.0000036993432 	1.088809686570941e-05 	101325.0043722778
-0.4466966966966969 	300.0000023656513 	6.967484612785655e-06 	101325.0027959992
-0.4441941941941945 	300.0000014989996 	4.417806144520235e-06 	101325.0017716391
-0.441691691691692 	300.0000009412622 	2.776036837130134e-06 	101325.001112506
-0.4391891891891895 	300.0000005858958 	1.729043378390058e-06 	101325.0006924595
-0.436686686686687 	300.0000003615118 	1.067643017762133e-06 	101325.0004272906
-0.4341841841841846 	300.0000002212074 	6.53654031119817e-07 	101325.0002614319
-0.431681681681682 	300.0000001341656 	3.968730574936019e-07 	101325.0001586231
-0.4291791791791794 	300.0000000806742 	2.3899249867801e-07 	101325.0000954571
-0.426676676676677 	300.0000000481261 	1.427692585731472e-07 	101325.0000569826
-0.4241741741741744 	300.0000000285239 	8.461024937858628e-08 	101325.0000337455
-0.421671671671672 	300.0000000167926 	4.975903667130421e-08 	101325.0000198278
-0.4191691691691694 	300.0000000098461 	2.903751707956863e-08 	101325.0000115598
-0.4166666666666669 	300.0000000057353 	1.682201437299842e-08 	101325.0000066872
-0.4141641641641645 	300.0000000031784 	9.670746384435218e-09 	101325.0000038384
-0.411661661661662 	300.0000000018646 	5.521243242683927e-09 	101325.0000021854
-0.4091591591591594 	300.0000000010523 	3.127504168231721e-09 	101325.0000012335
-0.406656656656657 	300.0000000005135 	1.76101243901167e-09 	101325.0000006892
-0.4041541541541545 	300.0000000003473 	9.814982455662559e-10 	101325.0000003803
-0.401651651651652 	300.0000000000888 	5.467661870469011e-10 	101325.0000002061
-0.3991491491491494 	300.0000000000967 	2.980042927531307e-10 	101325.0000001087
-0.396646646646647 	300.0000000000048 	1.672977783715059e-10 	101325.000000055
-0.3941441441441444 	300.0000000000011 	8.716262037490925e-11 	101325.0000000255
-0.3916416416416419 	299.9999999999333 	5.0120565172681e-11 	101325.0000000094
-0.3891391391391395 	299.9999999999604 	2.362811584844771e-11 	101325.0000000006
-0.3866366366366368 	299.9999999999537 	1.475186292137321e-11 	101324.9999999957
-0.3841341341341344 	299.9999999999987 	6.271602215180906e-12 	101324.999999993
-0.381631631631632 	299.9999999999471 	4.326838182520923e-12 	101324.9999999914
-0.3791291291291294 	300.0000000000077 	1.916469807719744e-12 	101324.9999999907
-0.3766266266266269 	300.000000000025 	8.071355046303626e-13 	101324.9999999902
-0.3741241241241244 	300.0000000000284 	9.398707740529357e-13 	101324.9999999898
-0.371621621621622 	300.0000000000167 	9.9235738861174e-13 	101324.9999999896
-0.3691191191191194 	300.0000000000049 	2.328822305383518e-12 	101324.9999999898
-0.366616616616617 	300.0000000000116 	1.875769284355708e-12 	101324.9999999903
-0.3641141141141143 	299.9999999999583 	2.080358170632135e-12 	101324.9999999904
-0.3616116116116119 	299.9999999999424 	1.057870225397453e-12 	101324.9999999903
-0.3591091091091095 	299.9999999999866 	1.760022399626694e-12 	101324.9999999904
-0.356606606606607 	299.9999999999754 	1.38706582601492e-12 	101324.9999999907
-0.3541041041041044 	299.9999999999781 	1.425774189763104e-12 	101324.9999999909
-0.3516016016016019 	299.9999999999994 	2.049139536660111e-12 	101324.9999999911
-0.3490990990990994 	299.9999999999819 	6.278153332368386e-13 	101324.999999991
-0.346596596596597 	300.0000000000544 	2.808905879313654e-12 	101324.9999999908
-0.3440940940940944 	300.0000000000666 	9.390030198531421e-13 	101324.9999999907
-0.3415915915915919 	300.0000000000172 	3.464387034774851e-12 	101324.9999999907
-0.3390890890890895 	299.9999999999767 	1.658805910389702e-12 	101324.9999999908
-0.3365865865865869 	300.0000000000229 	4.028781896106297e-12 	101324.9999999911
-0.3340840840840844 	300.0000000000097 	2.744351878118397e-12 	101324.9999999911
-0.3315815815815819 	300.0000000000309 	3.745419120533172e-12 	101324.9999999912
-0.3290790790790794 	300.0000000000177 	2.377009943024056e-12 	101324.9999999914
-0.3265765765765769 	299.9999999999169 	3.889207844060521e-12 	101324.9999999912
-0.3240740740740744 	299.9999999999959 	1.642031636422467e-12 	101324.9999999911
-0.3215715715715718 	300.000000000008 	4.282771781049163e-12 	101324.9999999909
-0.3190690690690695 	299.9999999999138 	2.133839536789046e-12 	101324.9999999908
-0.3165665665665668 	299.9999999999885 	5.086649383317375e-12 	101324.9999999906
-0.3140640640640644 	300.0000000000015 	1.739044124996958e-12 	101324.9999999904
-0.311561561561562 	299.9999999999127 	5.737811558645537e-12 	101324.9999999907
-0.3090590590590593 	299.9999999999916 	8.54697531405872e-13 	101324.9999999909
-0.3065565565565568 	300.0000000000064 	6.528970276274653e-12 	101324.9999999906
-0.3040540540540545 	300.0000000000211 	1.887517085964367e-12 	101324.9999999905
-0.3015515515515518 	300.0000000000391 	5.705978120157703e-12 	101324.9999999908
-0.2990490490490494 	299.9999999999356 	1.463756315861393e-12 	101324.9999999912
-0.2965465465465469 	299.999999999983 	4.437007548766599e-12 	101324.9999999915
-0.2940440440440444 	300.0000000000035 	2.810477292845269e-12 	101324.9999999915
-0.2915415415415418 	300.0000000000055 	4.220853062509445e-12 	101324.9999999913
-0.2890390390390395 	300.0000000000044 	4.024971255197747e-12 	101324.9999999912
-0.2865365365365368 	299.9999999999752 	3.128261021631448e-12 	101324.999999991
-0.2840340340340343 	300.0000000000061 	3.801511127650019e-12 	101324.9999999909
-0.2815315315315318 	299.9999999999171 	1.479511288473141e-12 	101324.999999991
-0.2790290290290295 	299.9999999999519 	2.769569709366346e-12 	101324.9999999912
-0.2765265265265269 	300.0000000000177 	1.598177752695872e-12 	101324.9999999913
-0.2740240240240244 	300.0000000000373 	2.153670263288828e-12 	101324.9999999911
-0.2715215215215219 	300.0000000000159 	1.827311519573949e-12 	101324.9999999911
-0.2690190190190194 	299.9999999999396 	1.038082074351014e-12 	101324.9999999909
-0.2665165165165169 	299.9999999999962 	1.292299414025996e-12 	101324.9999999909
-0.2640140140140144 	299.999999999957 	8.352371111838245e-13 	101324.9999999906
-0.2615115115115119 	299.9999999999957 	1.860016629045369e-12 	101324.9999999904
-0.2590090090090094 	299.9999999999208 	8.313092408960959e-13 	101324.9999999905
-0.2565065065065068 	299.9999999999931 	1.670534677057855e-12 	101324.9999999904
-0.2540040040040044 	299.9999999999969 	1.808066491939012e-12 	101324.9999999903
-0.2515015015015019 	300.0000000000453 	1.138944175654001e-12 	101324.99999999
-0.2489989989989994 	300.000000000056 	3.37676014054018e-12 	101324.9999999901
-0.2464964964964968 	299.9999999999928 	5.680242469477697e-13 	101324.9999999902
-0.2439939939939944 	299.9999999999991 	5.446768899459853e-12 	101324.9999999903
-0.2414914914914919 	299.9999999999687 	1.992810889142258e-12 	101324.9999999904
-0.2389889889889893 	300.0000000000067 	7.339719709719765e-12 	101324.9999999907
-0.2364864864864869 	300.000000000025 	3.404712088675037e-12 	101324.9999999908
-0.2339839839839843 	299.9999999999164 	7.591544809395208e-12 	101324.9999999906
-0.2314814814814819 	299.9999999999752 	3.419572026914098e-12 	101324.9999999906
-0.2289789789789792 	299.9999999999119 	6.648711234137935e-12 	101324.9999999907
-0.2264764764764769 	299.9999999999393 	3.182162531095989e-12 	101324.9999999906
-0.2239739739739743 	299.9999999999559 	5.469993648118425e-12 	101324.9999999908
-0.2214714714714718 	299.9999999999343 	3.909180942849755e-12 	101324.9999999907
-0.2189689689689693 	299.9999999999688 	3.741907933458168e-12 	101324.9999999907
-0.2164664664664669 	299.9999999999767 	5.063978832420645e-12 	101324.9999999904
-0.2139639639639643 	299.9999999999173 	4.750724603206485e-12 	101324.9999999902
-0.2114614614614618 	299.9999999999699 	5.064610841431715e-12 	101324.99999999
-0.2089589589589593 	299.9999999999965 	4.843649423313123e-12 	101324.99999999
-0.2064564564564568 	299.9999999999922 	4.131053063654235e-12 	101324.9999999902
-0.2039539539539543 	299.9999999998918 	5.079394777823925e-12 	101324.9999999905
-0.2014514514514518 	299.999999999944 	2.789530076373795e-12 	101324.9999999905
-0.1989489489489494 	299.9999999999728 	5.783298696826633e-12 	101324.9999999907
-0.1964464464464468 	299.9999999999953 	2.069152026506861e-12 	101324.9999999909
-0.1939439439439443 	299.9999999999822 	5.281346800492052e-12 	101324.999999991
-0.1914414414414418 	299.9999999999058 	2.537665066012517e-12 	101324.9999999911
-0.1889389389389393 	300.0000000000099 	4.326871330903523e-12 	101324.9999999913
-0.1864364364364368 	300.0000000000487 	2.002220035323027e-12 	101324.999999991
-0.1839339339339343 	299.9999999999686 	3.896283026369459e-12 	101324.9999999915
-0.1814314314314318 	299.9999999999932 	1.912554919700856e-12 	101324.9999999912
-0.1789289289289293 	299.9999999998911 	4.719427240662811e-12 	101324.9999999915
-0.1764264264264268 	299.9999999999722 	1.438010142162057e-12 	101324.9999999912
-0.1739239239239243 	299.9999999998842 	5.613581532844421e-12 	101324.9999999908
-0.1714214214214218 	299.9999999999873 	1.064806699093447e-12 	101324.9999999905
-0.1689189189189193 	299.9999999999512 	6.609509426664066e-12 	101324.9999999904
-0.1664164164164168 	300.0000000000073 	1.248537335580836e-12 	101324.99999999
-0.1639139139139143 	299.9999999999865 	7.39732158935289e-12 	101324.9999999898
-0.1614114114114118 	300.0000000000357 	2.762456502422112e-12 	101324.9999999897
-0.1589089089089093 	300.0000000000015 	8.886936022987414e-12 	101324.9999999897
-0.1564064064064068 	299.9999999999837 	3.311411157440751e-12 	101324.9999999897
-0.1539039039039043 	299.9999999999941 	1.007468123578869e-11 	101324.9999999897
-0.1514014014014018 	300.000000000028 	2.863104816486277e-12 	101324.9999999896
-0.1488988988988993 	299.9999999999869 	8.49358876432475e-12 	101324.9999999895
-0.1463963963963968 	300.0000000000005 	2.925473432351562e-12 	101324.9999999897
-0.1438938938938943 	299.999999999947 	6.554936611734307e-12 	101324.9999999898
-0.1413913913913918 	299.9999999999155 	2.15441805118388e-12 	101324.9999999899
-0.1388888888888893 	299.9999999999768 	4.990668454850668e-12 	101324.9999999899
-0.1363863863863868 	299.9999999998768 	1.544807483265579e-12 	101324.9999999899
-0.1338838838838843 	299.9999999999019 	3.029858773099032e-12 	101324.9999999901
-0.1313813813813818 	299.9999999999932 	1.343669385852993e-12 	101324.9999999903
-0.1288788788788793 	299.9999999999663 	2.078473399638379e-12 	101324.9999999904
-0.1263763763763768 	299.9999999999677 	1.476853374547644e-12 	101324.9999999907
-0.1238738738738743 	299.9999999999179 	2.685634315959727e-12 	101324.999999991
-0.1213713713713717 	299.9999999999772 	2.180798984536755e-12 	101324.9999999909
-0.1188688688688693 	300.0000000000051 	3.481194831610123e-12 	101324.9999999907
-0.1163663663663668 	299.9999999998942 	1.886963346766243e-12 	101324.9999999906
-0.1138638638638643 	299.9999999999918 	4.648787233419664e-12 	101324.9999999904
-0.1113613613613618 	299.9999999999815 	2.19355526085129e-12 	101324.9999999901
-0.1088588588588592 	299.9999999999687 	4.562342430875036e-12 	101324.99999999
-0.1063563563563568 	299.9999999999413 	2.147290278447059e-12 	101324.9999999899
-0.1038538538538543 	299.9999999999703 	3.863829559179631e-12 	101324.9999999898
-0.1013513513513517 	300.000000000016 	1.135005019234972e-12 	101324.9999999899
-0.09884884884884926 	299.9999999999234 	3.454656112203511e-12 	101324.99999999
-0.09634634634634676 	299.9999999998796 	2.457220571431554e-13 	101324.9999999903
-0.09384384384384425 	299.9999999999185 	2.864789679286886e-12 	101324.9999999905
-0.09134134134134177 	300.0000000000302 	5.885748536292982e-13 	101324.9999999908
-0.08883883883883925 	300.0000000000069 	2.606159669372464e-12 	101324.9999999905
-0.08633633633633674 	299.9999999999479 	1.09717108601969e-12 	101324.9999999905
-0.08383383383383426 	300.0000000000104 	2.243588522762789e-12 	101324.99999999
-0.08133133133133173 	299.999999999954 	2.554097555683618e-12 	101324.99999999
-0.07882882882882926 	299.9999999998665 	2.202333937213635e-12 	101324.9999999898
-0.07632632632632676 	299.9999999999525 	8.584871509381237e-13 	101324.9999999897
-0.07382382382382424 	299.9999999998829 	6.824047841654768e-13 	101324.99999999
-0.07132132132132173 	300.0000000000145 	1.085576098423226e-13 	101324.9999999902
-0.06881881881881925 	299.9999999999554 	6.855446645523321e-13 	101324.9999999903
-0.06631631631631671 	299.9999999998823 	3.95506162834081e-14 	101324.9999999902
-0.06381381381381425 	299.99999999995 	1.597930255169136e-13 	101324.9999999903
-0.06131131131131173 	299.9999999999521 	7.014757493726674e-13 	101324.9999999905
-0.05880880880880923 	299.9999999999039 	6.054872573410019e-13 	101324.9999999901
-0.05630630630630672 	299.9999999999636 	2.002584898501171e-13 	101324.9999999899
-0.05380380380380424 	300.0000000000181 	6.278514779272669e-14 	101324.9999999898
-0.05130130130130173 	300.0000000000117 	5.542204282615072e-13 	101324.9999999901
-0.04879879879879922 	299.9999999999347 	8.084300855344015e-13 	101324.9999999901
-0.04629629629629672 	299.9999999999207 	4.662610415046156e-13 	101324.9999999903
-0.04379379379379422 	299.9999999998985 	6.219745543047551e-13 	101324.9999999903
-0.04129129129129173 	299.9999999999768 	3.224059459909879e-14 	101324.9999999904
-0.03878878878878922 	299.9999999999866 	5.522693868304139e-13 	101324.9999999903
-0.03628628628628671 	299.9999999999812 	3.698027214934066e-13 	101324.9999999905
-0.03378378378378422 	299.9999999999075 	1.05014583543873e-12 	101324.9999999904
-0.03128128128128172 	299.9999999999589 	4.750409672449077e-13 	101324.9999999906
-0.02877877877877922 	299.999999999959 	1.155004557223073e-12 	101324.9999999907
-0.0262762762762767 	299.9999999998825 	5.916275547090507e-13 	101324.9999999905
-0.02377377377377422 	300.0000000000263 	1.06970598208717e-12 	101324.9999999907
-0.0212712712712717 	299.9999999998929 	1.253248300839433e-12 	101324.9999999904
-0.01876876876876921 	299.9999999999602 	6.391331197102739e-13 	101324.9999999902
-0.01626626626626671 	300.0000000000172 	8.454883725928273e-13 	101324.9999999898
-0.0137637637637642 	299.999999999961 	2.684277793695788e-13 	101324.9999999896
-0.0112612612612617 	300.0000000000192 	1.890757182593463e-13 	101324.9999999897
-0.008758758758759198 	299.9999999999965 	2.85908885679154e-13 	101324.9999999896
-0.006256256256256697 	299.9999999998639 	4.176444459252269e-13 	101324.9999999894
-0.003753753753754195 	299.9999999999495 	2.643798671992115e-13 	101324.9999999895
-0.001251251251251693 	299.9999999999147 	7.512153857005071e-13 	101324.9999999899
0.00125125125125081 	299.9999999999457 	2.685178688508643e-13 	101324.9999999901
0.003753753753753312 	299.9999999999561 	6.178542753405003e-13 	101324.9999999906
0.006256256256255817 	299.9999999998739 	9.521135599956365e-14 	101324.9999999905
0.008758758758758317 	299.999999999992 	4.1960257937956e-13 	101324.999999991
0.01126126126126082 	300.0000000000056 	5.138771184380879e-13 	101324.9999999912
0.01376376376376332 	299.999999999966 	1.995650539323892e-13 	101324.9999999913
0.01626626626626582 	300.0000000000139 	5.013158797925633e-13 	101324.9999999913
0.01876876876876833 	299.9999999999454 	7.809651294457376e-14 	101324.9999999911
0.02127127127127083 	299.999999999962 	2.313106606735764e-13 	101324.9999999909
0.02377377377377332 	299.9999999999937 	6.604045210116821e-13 	101324.9999999909
0.02627627627627583 	299.999999999888 	9.248780323335059e-13 	101324.9999999907
0.02877877877877833 	300.0000000000135 	4.213750660402253e-13 	101324.9999999907
0.03128128128128083 	299.9999999999434 	2.304360252406645e-13 	101324.9999999907
0.03378378378378333 	299.9999999998865 	1.449484875123796e-12 	101324.9999999907
0.03628628628628584 	299.9999999999589 	1.585561185501103e-12 	101324.9999999907
0.03878878878878834 	299.9999999999786 	1.90507329501255e-12 	101324.9999999907
0.04129129129129084 	299.9999999999739 	1.287777702988687e-12 	101324.9999999907
0.04379379379379333 	299.9999999999403 	1.588045518321311e-12 	101324.9999999906
0.04629629629629585 	299.9999999998754 	9.766317683860392e-13 	101324.9999999905
0.04879879879879834 	299.9999999999504 	1.410354912859572e-12 	101324.9999999902
0.05130130130130085 	300.0000000000153 	8.85782524502631e-13 	101324.99999999
0.05380380380380335 	300.0000000000248 	7.142141781971197e-13 	101324.9999999902
0.05630630630630584 	299.9999999999936 	5.965291781601398e-13 	101324.9999999903
0.05880880880880836 	299.9999999999126 	1.448759421126723e-12 	101324.9999999903
0.06131131131131085 	299.9999999999632 	2.08696093925364e-12 	101324.9999999904
0.06381381381381336 	299.999999999956 	2.356069676840077e-12 	101324.9999999903
0.06631631631631586 	299.9999999998751 	2.696425162690292e-12 	101324.9999999905
0.06881881881881835 	299.9999999999471 	3.039284348542548e-12 	101324.9999999905
0.07132132132132088 	299.9999999999745 	2.049792314089678e-12 	101324.9999999904
0.07382382382382337 	299.999999999886 	1.865580511108631e-12 	101324.9999999904
0.07632632632632587 	299.999999999962 	6.960224498293618e-13 	101324.9999999902
0.07882882882882837 	299.9999999999245 	1.185985289596324e-13 	101324.9999999903
0.08133133133133086 	299.9999999999728 	1.376194739789724e-13 	101324.9999999904
0.08383383383383337 	299.999999999982 	7.259154126690744e-13 	101324.9999999902
0.08633633633633589 	299.9999999998928 	6.758590973907242e-13 	101324.99999999
0.08883883883883838 	300.0000000000061 	3.376951159016631e-13 	101324.9999999899
0.09134134134134086 	299.999999999977 	8.471776238199732e-13 	101324.9999999898
0.09384384384384339 	299.9999999998799 	2.907291206833792e-13 	101324.9999999898
0.09634634634634588 	299.9999999999666 	3.941188111111708e-13 	101324.9999999902
0.09884884884884838 	299.999999999975 	7.804384761936788e-13 	101324.9999999904
0.1013513513513509 	300.0000000000206 	1.222677309762044e-12 	101324.9999999907
0.1038538538538534 	299.9999999999557 	9.732114443158106e-13 	101324.9999999906
0.1063563563563559 	300.0000000000132 	1.092691721350044e-12 	101324.9999999907
0.1088588588588584 	300.0000000000291 	1.116040440107725e-12 	101324.9999999905
0.1113613613613609 	299.9999999999043 	1.872538875291163e-12 	101324.99999999
0.1138638638638634 	299.9999999999378 	2.048569154804569e-12 	101324.9999999899
0.1163663663663659 	299.999999999947 	2.10130442039923e-12 	101324.9999999899
0.1188688688688684 	299.9999999999686 	2.187038470393017e-12 	101324.9999999902
0.1213713713713709 	299.9999999999985 	2.179441391159814e-12 	101324.9999999903
0.1238738738738734 	299.9999999999185 	2.325512069756825e-12 	101324.9999999901
0.1263763763763759 	299.9999999999816 	1.92275287032398e-12 	101324.9999999901
0.1288788788788784 	299.9999999999835 	2.000233183093183e-12 	101324.99999999
0.1313813813813809 	299.9999999999809 	1.656823898223848e-12 	101324.9999999899
0.1338838838838834 	299.9999999999774 	1.916089265056231e-12 	101324.9999999898
0.1363863863863859 	300.0000000000172 	1.344787534582346e-12 	101324.9999999893
0.1388888888888884 	300.0000000000488 	2.043635327706573e-12 	101324.9999999896
0.1413913913913909 	300.0000000000085 	1.252251223196598e-12 	101324.9999999898
0.1438938938938934 	299.9999999999902 	2.589473321902003e-12 	101324.9999999895
0.1463963963963959 	299.9999999999465 	1.609209617038684e-12 	101324.9999999894
0.1488988988988985 	299.9999999998964 	3.707851120481091e-12 	101324.9999999896
0.1514014014014009 	299.9999999999671 	1.581439684193092e-12 	101324.9999999897
0.1539039039039035 	299.9999999999608 	3.344526007687831e-12 	101324.9999999899
0.1564064064064059 	299.9999999999151 	4.545484558709298e-13 	101324.9999999903
0.1589089089089084 	299.9999999999717 	2.595729014771802e-12 	101324.9999999901
0.1614114114114109 	299.9999999999662 	6.27080961175827e-13 	101324.9999999899
0.1639139139139134 	299.9999999998982 	2.176056703225529e-12 	101324.99999999
0.166416416416416 	300.0000000000044 	1.891601277994613e-12 	101324.99999999
0.1689189189189185 	300.0000000000366 	2.310794955777585e-12 	101324.99999999
0.1714214214214209 	300.0000000000027 	2.642936512245022e-12 	101324.9999999897
0.1739239239239235 	299.9999999999831 	7.872465506650041e-13 	101324.9999999896
0.1764264264264259 	299.9999999999675 	1.78369516619516e-12 	101324.9999999896
0.1789289289289284 	300.0000000000036 	1.619894779801815e-12 	101324.9999999893
0.181431431431431 	299.9999999999566 	7.10419809100554e-13 	101324.9999999891
0.1839339339339334 	299.9999999999674 	8.896616753065833e-13 	101324.9999999892
0.186436436436436 	299.9999999999211 	1.121620711811393e-12 	101324.9999999893
0.1889389389389385 	299.9999999999748 	9.094423184511916e-13 	101324.9999999896
0.191441441441441 	299.999999999969 	1.534791026275348e-12 	101324.9999999899
0.1939439439439434 	299.9999999999126 	3.523681183778093e-12 	101324.9999999895
0.196446446446446 	299.9999999999393 	2.808123404726265e-12 	101324.9999999895
0.1989489489489485 	299.9999999999566 	4.870144936091844e-12 	101324.9999999899
0.2014514514514509 	299.9999999999791 	2.675636386344084e-12 	101324.9999999899
0.2039539539539535 	299.9999999999942 	3.565180057513855e-12 	101324.9999999899
0.2064564564564559 	299.9999999999474 	2.732473272072605e-12 	101324.9999999898
0.2089589589589585 	299.9999999999831 	3.253478624610102e-12 	101324.9999999897
0.211461461461461 	299.999999999925 	3.142145249381614e-12 	101324.9999999897
0.2139639639639635 	299.9999999999724 	2.159763940617187e-12 	101324.9999999897
0.2164664664664659 	299.9999999999995 	2.731781426654585e-12 	101324.9999999891
0.2189689689689684 	299.9999999999997 	4.561816894982811e-13 	101324.999999989
0.221471471471471 	299.9999999999969 	2.221787584074981e-12 	101324.9999999887
0.2239739739739735 	299.9999999999479 	5.965388518216221e-13 	101324.999999989
0.226476476476476 	299.9999999999746 	2.265238800808905e-12 	101324.9999999892
0.2289789789789785 	299.9999999999901 	1.758773005257904e-12 	101324.9999999893
0.231481481481481 	299.9999999999872 	2.086449749526899e-12 	101324.9999999893
0.2339839839839835 	299.9999999999811 	2.621373893448535e-12 	101324.9999999895
0.236486486486486 	300.0000000000313 	1.994921510504862e-12 	101324.9999999897
0.2389889889889885 	300.0000000000098 	2.849483161219215e-12 	101324.9999999896
0.241491491491491 	299.9999999999069 	1.258580107232938e-12 	101324.9999999896
0.2439939939939935 	299.9999999999779 	3.945736262920913e-12 	101324.9999999893
0.246496496496496 	299.9999999999931 	2.189084105457039e-12 	101324.9999999893
0.2489989989989985 	300.0000000000418 	3.29359268351349e-12 	101324.9999999891
0.251501501501501 	300.0000000000352 	1.809401954653479e-12 	101324.9999999893
0.2540040040040035 	299.9999999999914 	9.119290534929636e-13 	101324.9999999895
0.256506506506506 	300.0000000000356 	1.087443806833824e-12 	101324.9999999895
0.2590090090090086 	299.9999999999001 	1.596266027413043e-12 	101324.9999999895
0.261511511511511 	299.9999999999959 	9.620190402533745e-13 	101324.9999999895
0.2640140140140135 	299.9999999999845 	1.844461977473381e-12 	101324.9999999896
0.2665165165165161 	299.9999999999216 	7.576791985682193e-13 	101324.9999999895
0.2690190190190185 	300.0000000000156 	1.155734629459097e-13 	101324.9999999897
0.271521521521521 	300.0000000000189 	7.952681712782787e-13 	101324.9999999898
0.2740240240240235 	300.0000000000208 	1.020002145622674e-12 	101324.9999999896
0.276526526526526 	300.000000000009 	5.624126331523591e-13 	101324.9999999895
0.2790290290290286 	299.9999999999367 	1.859761936408106e-12 	101324.9999999896
0.281531531531531 	299.999999999919 	9.311653795622298e-13 	101324.9999999898
0.2840340340340335 	299.9999999999789 	2.571622905629037e-12 	101324.9999999898
0.2865365365365361 	299.9999999999549 	1.509083520476204e-12 	101324.9999999894
0.2890390390390385 	299.9999999999945 	1.845580420824524e-12 	101324.9999999896
0.291541541541541 	299.9999999999945 	1.606365435812562e-12 	101324.9999999895
0.2940440440440436 	299.9999999999833 	7.687510571553933e-13 	101324.9999999894
0.296546546546546 	299.9999999999882 	2.707426619569378e-12 	101324.9999999894
0.2990490490490486 	299.9999999999318 	8.145790135484132e-13 	101324.9999999893
0.3015515515515511 	300.0000000000421 	4.488045691438222e-12 	101324.9999999893
0.3040540540540535 	299.9999999999982 	2.17607661771572e-12 	101324.9999999892
0.3065565565565562 	299.9999999999945 	4.335213195642381e-12 	101324.999999989
0.3090590590590585 	299.9999999999861 	1.996809951116044e-12 	101324.9999999889
0.3115615615615611 	299.9999999999318 	3.734165291507961e-12 	101324.999999989
0.3140640640640635 	300.0000000000105 	1.678284482680669e-12 	101324.9999999888
0.316566566566566 	299.9999999999929 	1.649098803343256e-12 	101324.9999999889
0.3190690690690687 	299.9999999999479 	2.705557531079247e-12 	101324.9999999889
0.3215715715715711 	300.0000000000181 	1.541348776688681e-12 	101324.9999999888
0.3240740740740735 	299.9999999999972 	1.811742279725241e-12 	101324.999999989
0.326576576576576 	299.9999999998828 	1.098579186023494e-12 	101324.9999999894
0.3290790790790786 	300.0000000000089 	1.463736820082523e-12 	101324.9999999894
0.3315815815815811 	300.0000000000431 	3.296548404419388e-13 	101324.9999999896
0.3340840840840836 	299.9999999999851 	1.711810693032255e-12 	101324.9999999897
0.3365865865865861 	300.0000000000636 	2.683220463042672e-13 	101324.9999999896
0.3390890890890886 	300.0000000000538 	1.687131470754623e-12 	101324.9999999897
0.3415915915915911 	299.9999999999996 	3.988560872427558e-13 	101324.9999999892
0.3440940940940935 	299.9999999999476 	1.473404675110578e-12 	101324.9999999891
0.3465965965965962 	300.0000000000446 	2.891722901863344e-13 	101324.9999999889
0.3490990990990985 	300.0000000000329 	1.000733741272817e-12 	101324.9999999888
0.3516016016016011 	299.9999999999842 	6.098128604936248e-13 	101324.9999999889
0.3541041041041035 	300.0000000000055 	5.585726305452084e-13 	101324.9999999891
0.3566066066066061 	299.9999999999511 	1.699080297408648e-12 	101324.999999989
0.3591091091091085 	299.9999999999075 	9.793761928936161e-13 	101324.999999989
0.3616116116116112 	299.9999999999338 	2.216859558783421e-12 	101324.9999999891
0.3641141141141137 	299.9999999999242 	1.675121206559979e-12 	101324.9999999891
0.3666166166166161 	299.9999999999156 	3.016112319636247e-12 	101324.9999999891
0.3691191191191185 	300.0000000000452 	2.690230950001546e-12 	101324.999999989
0.371621621621621 	300.0000000000257 	3.162364451793625e-12 	101324.9999999892
0.3741241241241237 	300.0000000000555 	1.503467481166714e-12 	101324.9999999894
0.3766266266266261 	300.000000000035 	2.699686476534334e-12 	101324.9999999891
0.3791291291291286 	299.9999999999807 	1.029387274543715e-12 	101324.9999999893
0.3816316316316311 	299.999999999904 	2.309208472322649e-12 	101324.9999999895
0.3841341341341336 	300.0000000000124 	1.246770759601236e-12 	101324.9999999895
0.3866366366366362 	299.9999999999976 	2.087396675712566e-12 	101324.9999999893
0.3891391391391387 	299.9999999999505 	7.094791759382406e-13 	101324.9999999895
0.391641641641641 	299.9999999999899 	1.797255286488822e-12 	101324.9999999896
0.3941441441441436 	300.0000000000047 	2.920861569838116e-13 	101324.9999999895
0.3966466466466462 	299.9999999999961 	1.478164796429499e-12 	101324.9999999897
0.3991491491491486 	299.9999999999416 	1.134557020928185e-12 	101324.9999999896
0.4016516516516512 	299.9999999999028 	7.184476883643489e-13 	101324.9999999893
0.4041541541541536 	299.9999999999453 	1.47482354869478e-12 	101324.9999999892
0.4066566566566561 	299.999999999941 	1.273847047399486e-12 	101324.999999989
0.4091591591591587 	299.9999999999816 	5.343838304285535e-13 	101324.9999999891
0.4116616616616612 	299.9999999999902 	1.88495015844436e-12 	101324.9999999893
0.4141641641641635 	300.000000000048 	1.773712980416257e-12 	101324.9999999893
0.4166666666666662 	299.9999999999915 	1.756796976956422e-12 	101324.9999999892
0.4191691691691687 	299.9999999999334 	2.524180424023997e-12 	101324.9999999893
0.421671671671671 	300.0000000000126 	1.184425487057576e-12 	101324.9999999893
0.4241741741741737 	299.9999999999723 	3.190878738105078e-12 	101324.9999999895
0.4266766766766761 	299.9999999999481 	2.169795179367101e-12 	101324.9999999894
0.4291791791791785 	300.0000000000236 	3.237699608312521e-12 	101324.9999999893
0.4316816816816812 	300.0000000000102 	3.292530764672624e-12 	101324.9999999894
0.4341841841841836 	299.9999999999822 	3.152174823553082e-12 	101324.9999999893
0.4366866866866862 	299.999999999905 	1.715455065399187e-12 	101324.9999999892
0.4391891891891885 	299.9999999999831 	2.507058741886441e-12 	101324.9999999894
0.4416916916916913 	299.9999999999763 	1.113460228673205e-12 	101324.9999999895
0.4441941941941936 	299.999999999984 	1.834387325219487e-12 	101324.9999999898
0.4466966966966961 	299.9999999999068 	6.358966995460963e-13 	101324.9999999901
0.4491991991991987 	299.9999999999744 	2.233426048953724e-13 	101324.9999999902
0.4517017017017012 	299.9999999999716 	1.238603292381925e-12 	101324.9999999901
0.4542042042042035 	299.9999999999961 	1.11228188590626e-12 	101324.9999999897
0.4567067067067062 	299.9999999999942 	5.889756878603713e-13 	101324.9999999895
0.4592092092092087 	299.9999999999178 	9.097080965835206e-13 	101324.9999999895
0.4617117117117112 	300.0000000000258 	6.578035535230414e-13 	101324.9999999893
0.4642142142142137 	299.9999999999586 	3.989020654120338e-13 	101324.9999999891
0.4667167167167162 	299.9999999999865 	3.937395755386702e-13 	101324.999999989
0.4692192192192187 	299.9999999999527 	9.824405213933024e-14 	101324.9999999891
0.4717217217217212 	300.0000000000194 	2.566138276490456e-13 	101324.9999999892
0.4742242242242236 	299.9999999999604 	8.162468821443454e-13 	101324.9999999894
0.4767267267267262 	299.9999999999595 	9.853463372384297e-13 	101324.9999999897
0.4792292292292287 	300.0000000000153 	6.007421892078955e-13 	101324.99999999
0.4817317317317312 	300.0000000000364 	7.321243074317544e-13 	101324.9999999899
0.4842342342342336 	299.9999999999832 	5.988973130907029e-13 	101324.9999999899
0.4867367367367362 	299.9999999999469 	7.541797830714787e-13 	101324.9999999894
0.4892392392392387 	300.0000000000322 	8.663902564598813e-13 	101324.9999999892
0.4917417417417412 	300.0000000000065 	1.27879774619567e-12 	101324.999999989
0.4942442442442437 	299.9999999999009 	9.49488805953901e-13 	101324.9999999891
0.4967467467467462 	299.9999999999206 	1.268231428799832e-12 	101324.999999989
0.4992492492492487 	299.9999999999125 	1.288833961706823e-12 	101324.9999999888
0.5017517517517511 	299.9999999999504 	1.501471944465107e-13 	101324.9999999887
0.5042542542542537 	299.9999999999625 	1.783896351503677e-13 	101324.9999999889
0.5067567567567562 	299.9999999999417 	2.631589908510678e-13 	101324.9999999891
0.5092592592592589 	299.9999999999682 	9.916237711319566e-13 	101324.9999999895
0.5117617617617611 	299.9999999999507 	1.188292184179642e-12 	101324.9999999897
0.5142642642642637 	299.999999999984 	1.725807914678097e-12 	101324.9999999897
0.5167667667667663 	299.9999999999683 	3.063835132774827e-12 	101324.9999999894
0.5192692692692688 	299.9999999999113 	2.315791871456931e-12 	101324.9999999894
0.5217717717717714 	299.9999999999338 	4.722352600701932e-12 	101324.9999999895
0.5242742742742736 	299.999999999934 	1.313632499136921e-12 	101324.9999999893
0.5267767767767763 	299.9999999999545 	4.373336269401599e-12 	101324.9999999894
0.5292792792792789 	299.9999999999331 	1.156412608513381e-12 	101324.9999999892
0.5317817817817813 	299.9999999998964 	4.235040675243137e-12 	101324.9999999893
0.5342842842842837 	300.0000000000184 	2.188527426235783e-12 	101324.9999999895
0.5367867867867864 	300.0000000000029 	4.090848001827699e-12 	101324.9999999898
0.5392892892892888 	299.9999999999582 	2.530888241852642e-12 	101324.9999999902
0.5417917917917912 	300.0000000000063 	3.913589086647835e-12 	101324.9999999905
0.5442942942942938 	299.9999999999829 	2.37043113762688e-12 	101324.9999999907
0.5467967967967964 	299.9999999999395 	3.580533661344981e-12 	101324.9999999905
0.5492992992992988 	299.9999999999383 	2.626770299801555e-12 	101324.9999999905
0.5518018018018012 	299.9999999999391 	3.975060957573913e-12 	101324.9999999907
0.5543043043043039 	300.0000000000253 	2.823071356412175e-12 	101324.9999999909
0.5568068068068063 	299.9999999999923 	3.73248600963839e-12 	101324.9999999911
0.5593093093093087 	299.9999999999001 	2.771987520275364e-12 	101324.9999999912
0.5618118118118114 	299.9999999999575 	4.202682827141033e-12 	101324.9999999913
0.5643143143143137 	299.9999999999411 	3.132217229337127e-12 	101324.9999999912
0.5668168168168163 	299.999999999991 	3.752657921646709e-12 	101324.9999999912
0.5693193193193188 	300.0000000000343 	3.297498780892773e-12 	101324.9999999907
0.5718218218218213 	300.000000000029 	2.504130161997562e-12 	101324.9999999907
0.5743243243243239 	300.0000000000115 	3.275898049611178e-12 	101324.9999999906
0.5768268268268262 	300.0000000000047 	1.981305129264636e-12 	101324.9999999905
0.5793293293293288 	299.9999999999392 	5.036819713855464e-12 	101324.9999999905
0.5818318318318314 	299.999999999915 	2.923851623555441e-12 	101324.9999999906
0.5843343343343338 	299.9999999999797 	6.965784316860339e-12 	101324.9999999907
0.5868368368368363 	299.999999999973 	3.553892652362191e-12 	101324.9999999906
0.5893393393393387 	299.9999999999409 	6.928764266845941e-12 	101324.9999999909
0.5918418418418413 	299.9999999999403 	4.402176651647036e-12 	101324.9999999911
0.5943443443443439 	300.0000000000202 	6.493871392599724e-12 	101324.9999999911
0.5968468468468463 	300.0000000000211 	4.289223609119941e-12 	101324.9999999912
0.5993493493493487 	300.0000000000371 	5.367068868620008e-12 	101324.9999999909
0.6018518518518514 	299.9999999999802 	3.552579021900413e-12 	101324.9999999908
0.6043543543543537 	299.999999999997 	4.917542147869017e-12 	101324.9999999907
0.6068568568568564 	299.999999999985 	3.516166403773682e-12 	101324.9999999905
0.6093593593593587 	299.9999999999329 	4.907440288408393e-12 	101324.9999999907
0.6118618618618614 	299.9999999999238 	4.168792338494878e-12 	101324.9999999909
0.6143643643643638 	300.0000000000223 	5.182208610026241e-12 	101324.9999999909
0.6168668668668662 	299.9999999999931 	3.160958123403806e-12 	101324.9999999907
0.6193693693693688 	299.9999999999565 	4.353233793711624e-12 	101324.9999999908
0.6218718718718714 	299.9999999999672 	2.673689501124306e-12 	101324.999999991
0.6243743743743737 	299.9999999999373 	4.623798319789839e-12 	101324.9999999913
0.6268768768768762 	299.9999999999235 	3.349358464813455e-12 	101324.9999999913
0.629379379379379 	299.9999999999531 	4.693683727311199e-12 	101324.9999999913
0.6318818818818812 	299.9999999999824 	4.411305436863258e-12 	101324.9999999913
0.6343843843843838 	300.0000000000213 	4.183412896171244e-12 	101324.9999999913
0.6368868868868864 	299.9999999999875 	4.103689697682375e-12 	101324.9999999912
0.6393893893893888 	299.9999999999188 	2.836499314818315e-12 	101324.9999999911
0.6418918918918912 	300.000000000002 	5.402615046467699e-12 	101324.9999999911
0.6443943943943939 	299.9999999999712 	2.779760313330961e-12 	101324.9999999911
0.6468968968968963 	299.9999999999848 	6.82622692117918e-12 	101324.9999999909
0.6493993993993988 	299.9999999999711 	2.797816066449597e-12 	101324.9999999909
0.6519019019019012 	299.9999999999729 	5.793180149987578e-12 	101324.9999999909
0.6544044044044038 	299.9999999998946 	2.871344497227174e-12 	101324.9999999912
0.6569069069069065 	299.9999999999444 	5.863808619188411e-12 	101324.9999999914
0.6594094094094087 	299.9999999999623 	3.495253128480139e-12 	101324.9999999916
0.6619119119119113 	299.9999999999568 	6.106251181911271e-12 	101324.9999999917
0.664414414414414 	300.0000000000109 	5.081402388205524e-12 	101324.999999992
0.6669169169169162 	300.0000000000221 	7.737092743427212e-12 	101324.9999999923
0.6694194194194188 	299.9999999999857 	6.581432772959176e-12 	101324.9999999923
0.6719219219219214 	299.9999999999184 	7.546082158103741e-12 	101324.9999999922
0.674424424424424 	299.9999999999709 	5.696749892381644e-12 	101324.9999999923
0.6769269269269262 	299.9999999999195 	6.19951477320786e-12 	101324.9999999924
0.679429429429429 	300.0000000000052 	5.01750789952545e-12 	101324.9999999923
0.6819319319319311 	299.9999999999837 	5.475881112842101e-12 	101324.9999999923
0.6844344344344341 	299.9999999999964 	4.656438347406607e-12 	101324.9999999922
0.686936936936936 	299.9999999999914 	5.792974421934909e-12 	101324.9999999922
0.6894394394394392 	299.9999999999876 	5.822828037000503e-12 	101324.999999992
0.6919419419419413 	299.9999999999871 	6.439579517184255e-12 	101324.999999992
0.694444444444444 	299.9999999999242 	6.753372388249291e-12 	101324.9999999921
0.6969469469469463 	299.9999999999189 	6.435272899849115e-12 	101324.9999999921
0.6994494494494489 	299.9999999999201 	7.185137629635873e-12 	101324.9999999922
0.7019519519519515 	299.9999999999859 	6.015614584476663e-12 	101324.9999999921
0.7044544544544538 	299.9999999999488 	7.285631220766758e-12 	101324.9999999921
0.7069569569569564 	299.9999999999977 	5.154669323430739e-12 	101324.9999999923
0.7094594594594589 	299.9999999999634 	7.587862161309528e-12 	101324.9999999922
0.7119619619619615 	299.9999999999128 	5.155805534493885e-12 	101324.9999999923
0.7144644644644638 	299.9999999999545 	6.99979567678193e-12 	101324.9999999925
0.7169669669669665 	299.9999999999209 	5.85565792014242e-12 	101324.9999999927
0.7194694694694688 	299.9999999999969 	6.769669001616263e-12 	101324.9999999928
0.7219719719719715 	299.9999999999872 	5.854895063251661e-12 	101324.9999999928
0.7244744744744737 	300.0000000000041 	6.289090110812842e-12 	101324.999999993
0.7269769769769764 	299.9999999999974 	6.733989801592639e-12 	101324.999999993
0.7294794794794791 	299.9999999999866 	5.962737447366658e-12 	101324.9999999929
0.7319819819819813 	299.9999999999742 	8.000392781134873e-12 	101324.9999999928
0.7344844844844839 	299.9999999999138 	6.466709039094384e-12 	101324.9999999928
0.7369869869869864 	299.9999999999436 	7.806840965722683e-12 	101324.999999993
0.739489489489489 	299.9999999999351 	7.189787195878779e-12 	101324.999999993
0.7419919919919914 	299.9999999999197 	7.468044558287773e-12 	101324.9999999928
0.7444944944944939 	299.9999999999785 	8.018872270893943e-12 	101324.999999993
0.7469969969969963 	299.9999999999693 	6.648327690794515e-12 	101324.9999999931
0.7494994994994989 	299.9999999999324 	8.64090160665783e-12 	101324.9999999932
0.7520020020020015 	299.9999999999661 	5.839459934235239e-12 	101324.9999999933
0.7545045045045039 	299.9999999999644 	9.026160552640668e-12 	101324.9999999932
0.7570070070070062 	299.999999999938 	6.368350052772178e-12 	101324.9999999933
0.7595095095095092 	299.999999999927 	7.895050987103476e-12 	101324.9999999936
0.7620120120120112 	300.0000000000117 	6.958213553476514e-12 	101324.9999999937
0.7645145145145138 	299.9999999999908 	7.598280916608668e-12 	101324.9999999939
0.7670170170170165 	299.9999999999297 	8.713881298041609e-12 	101324.999999994
0.7695195195195191 	299.9999999999192 	8.245930579688101e-12 	101324.9999999941
0.7720220220220213 	299.9999999999375 	1.090066142096011e-11 	101324.999999994
0.7745245245245239 	299.9999999999319 	8.979937850893385e-12 	101324.9999999942
0.7770270270270263 	299.9999999999691 	1.110366093648553e-11 	101324.9999999939
0.779529529529529 	299.9999999999834 	1.05048032184814e-11 	101324.9999999936
0.7820320320320313 	299.9999999999665 	1.159116430204226e-11 	101324.9999999934
0.784534534534534 	300.0000000000051 	1.161119993434381e-11 	101324.9999999934
0.7870370370370364 	299.999999999994 	1.085590710381518e-11 	101324.9999999936
0.7895395395395389 	299.9999999999753 	1.159577635732573e-11 	101324.9999999935
0.7920420420420413 	299.9999999999774 	1.017602046151981e-11 	101324.9999999933
0.794544544544544 	299.9999999999864 	1.144625428307085e-11 	101324.9999999934
0.7970470470470463 	300.0000000000083 	8.598639386097265e-12 	101324.9999999936
0.799549549549549 	299.9999999999894 	1.140843014264864e-11 	101324.9999999937
0.8020520520520515 	299.9999999999887 	8.427360607274037e-12 	101324.9999999936
0.8045545545545539 	299.9999999999434 	1.029713249914935e-11 	101324.9999999937
0.8070570570570563 	299.9999999999769 	8.6294351478106e-12 	101324.9999999938
0.8095595595595589 	299.9999999999531 	9.460183651386502e-12 	101324.9999999939
0.8120620620620614 	299.9999999999367 	9.619206724588557e-12 	101324.999999994
0.8145645645645638 	300.0000000000021 	9.515192710152288e-12 	101324.9999999939
0.8170670670670666 	299.9999999999999 	1.034164849663619e-11 	101324.999999994
0.8195695695695689 	299.9999999999786 	8.669865330239447e-12 	101324.9999999941
0.8220720720720714 	299.9999999999386 	1.102906391601091e-11 	101324.9999999941
0.8245745745745739 	299.9999999999937 	8.696983315890771e-12 	101324.9999999945
0.8270770770770765 	299.9999999999707 	1.07416498918948e-11 	101324.9999999946
0.8295795795795788 	299.999999999944 	1.044958241316512e-11 	101324.9999999944
0.8320820820820815 	300.0000000000217 	1.149046522326953e-11 	101324.9999999944
0.834584584584584 	300.0000000000133 	1.051917881391223e-11 	101324.999999994
0.8370870870870865 	299.9999999999699 	1.053686520181783e-11 	101324.999999994
0.8395895895895891 	299.9999999999281 	1.142055078444856e-11 	101324.9999999943
0.8420920920920915 	299.9999999999458 	1.087135014667756e-11 	101324.9999999943
0.844594594594594 	299.9999999999378 	1.134494886704064e-11 	101324.999999994
0.8470970970970964 	299.9999999999445 	1.134141921722712e-11 	101324.9999999942
0.8495995995995991 	299.9999999999877 	1.098995957263803e-11 	101324.9999999943
0.8521021021021015 	299.9999999999777 	1.148558653735071e-11 	101324.9999999943
0.8546046046046039 	299.9999999999722 	1.109970299229074e-11 	101324.9999999942
0.8571071071071066 	299.9999999999962 	1.192161214442339e-11 	101324.9999999944
0.8596096096096089 	299.9999999999593 	9.221357714085808e-12 	101324.9999999946
0.8621121121121116 	299.9999999999304 	1.189282830929659e-11 	101324.9999999947
0.8646146146146139 	299.9999999999973 	9.368451087768492e-12 	101324.9999999949
0.8671171171171166 	299.9999999999738 	1.112081915639982e-11 	101324.9999999951
0.8696196196196189 	299.9999999999387 	1.004432618904869e-11 	101324.999999995
0.8721221221221216 	299.9999999999728 	1.078784445935208e-11 	101324.999999995
0.874624624624624 	300.0000000000026 	1.072350540954781e-11 	101324.9999999949
0.8771271271271264 	299.999999999997 	1.089379097656069e-11 	101324.9999999948
0.879629629629629 	300.0000000000016 	1.2091494594841e-11 	101324.9999999948
0.8821321321321317 	299.9999999999851 	1.08459446444265e-11 	101324.9999999949
0.8846346346346339 	299.9999999999215 	1.351951155223281e-11 	101324.999999995
0.8871371371371364 	299.9999999999541 	1.134479033891872e-11 	101324.9999999948
0.8896396396396391 	299.9999999999538 	1.295847859926898e-11 	101324.9999999947
0.8921421421421414 	299.9999999999584 	1.145414519079676e-11 	101324.9999999949
0.8946446446446441 	299.9999999999839 	1.174726341814088e-11 	101324.9999999951
0.8971471471471464 	300.0000000000045 	1.133376247504724e-11 	101324.9999999951
0.8996496496496489 	299.9999999999822 	1.094089619940122e-11 	101324.9999999952
0.9021521521521517 	299.9999999999646 	1.200494629146494e-11 	101324.9999999954
0.9046546546546541 	299.999999999992 	1.11147450286977e-11 	101324.9999999957
0.9071571571571564 	299.9999999999453 	1.197457637791719e-11 	101324.9999999959
0.9096596596596589 	299.9999999999446 	1.167016206774245e-11 	101324.999999996
0.9121621621621616 	300.0000000000081 	1.179273169201373e-11 	101324.9999999959
0.9146646646646639 	299.9999999999815 	1.182847006442724e-11 	101324.9999999959
0.9171671671671666 	299.9999999999509 	1.148981308813082e-11 	101324.9999999959
0.9196696696696689 	300.0000000000027 	1.18919933359319e-11 	101324.9999999959
0.9221721721721714 	300.0000000000028 	9.876999635556041e-12 	101324.9999999958
0.9246746746746741 	299.9999999999409 	1.268380321055501e-11 	101324.9999999957
0.9271771771771765 	299.9999999999504 	1.027786367839371e-11 	101324.9999999956
0.9296796796796791 	299.9999999999907 	1.25114338679024e-11 	101324.9999999956
0.9321821821821816 	299.9999999999665 	1.151249282448985e-11 	101324.9999999956
0.9346846846846838 	299.9999999999463 	1.327619115125154e-11 	101324.9999999957
0.9371871871871866 	300.000000000013 	1.291900968961692e-11 	101324.9999999955
0.9396896896896891 	300.0000000000098 	1.274053085817417e-11 	101324.9999999956
0.9421921921921914 	300.0000000000062 	1.315861217668707e-11 	101324.999999996
0.9446946946946939 	299.9999999999708 	1.246991579937624e-11 	101324.9999999961
0.9471971971971965 	299.9999999999243 	1.486045876613466e-11 	101324.999999996
0.9496996996996991 	299.999999999958 	1.22769762895937e-11 	101324.9999999958
0.9522022022022016 	299.9999999999708 	1.352671504924012e-11 	101324.9999999954
0.9547047047047038 	299.9999999999731 	1.222218878491871e-11 	101324.9999999954
0.9572072072072064 	299.9999999999583 	1.350988423553522e-11 	101324.9999999957
0.9597097097097093 	299.999999999962 	1.412049335649045e-11 	101324.9999999958
0.9622122122122114 	299.9999999999604 	1.449583364440632e-11 	101324.9999999957
0.964714714714714 	299.9999999999504 	1.564909044365913e-11 	101324.9999999956
0.9672172172172167 	299.9999999999515 	1.439536863239716e-11 	101324.9999999955
0.969719719719719 	299.9999999999849 	1.483377795081018e-11 	101324.9999999955
0.9722222222222214 	299.9999999999847 	1.386209542902059e-11 	101324.9999999956
0.9747247247247239 	299.9999999999754 	1.421719287774319e-11 	101324.9999999955
0.9772272272272267 	300.0000000000022 	1.471176798850832e-11 	101324.9999999955
0.9797297297297292 	299.9999999999818 	1.428582064036043e-11 	101324.9999999958
0.9822322322322313 	299.9999999999851 	1.443640939905224e-11 	101324.9999999959
0.9847347347347344 	299.9999999999845 	1.247281290478929e-11 	101324.9999999957
0.9872372372372363 	299.9999999999334 	1.498343172540404e-11 	101324.9999999955
0.9897397397397389 	299.9999999999583 	1.25593754846394e-11 	101324.9999999959
0.9922422422422417 	299.9999999999511 	1.47838423767893e-11 	101324.9999999964
0.9947447447447441 	299.9999999999602 	1.362420400850325e-11 	101324.9999999967
0.9972472472472468 	299.9999999999642 	1.485432586122438e-11 	101324.999999997
0.999749749749749 	299.9999999999675 	1.441778582113603e-11 	101324.9999999969
1.002252252252252 	299.9999999999842 	1.486013763037178e-11 	101324.999999997
1.004754754754754 	299.9999999999965 	1.427490967451334e-11 	101324.999999997
1.007257257257256 	299.9999999999776 	1.253933652001345e-11 	101324.9999999969
1.009759759759759 	299.9999999999627 	1.454177130449828e-11 	101324.9999999968
1.012262262262261 	299.9999999999467 	1.269670592288757e-11 	101324.9999999965
1.014764764764764 	299.999999999931 	1.475411861268405e-11 	101324.9999999965
1.017267267267267 	299.9999999999278 	1.416768218786185e-11 	101324.9999999967
1.019769769769769 	299.9999999999756 	1.560231917564068e-11 	101324.9999999967
1.022272272272272 	299.9999999999877 	1.496210880782973e-11 	101324.9999999967
1.024774774774774 	299.9999999999859 	1.481558654582691e-11 	101324.9999999965
1.027277277277277 	299.9999999999768 	1.607228994309023e-11 	101324.9999999961
1.029779779779779 	299.9999999999991 	1.585729784477067e-11 	101324.9999999959
1.032282282282282 	300.0000000000026 	1.712537653177558e-11 	101324.999999996
1.034784784784784 	299.9999999999931 	1.640477124485044e-11 	101324.9999999962
1.037287287287286 	299.9999999999611 	1.661977160980659e-11 	101324.9999999963
1.039789789789789 	299.9999999999732 	1.663814805073955e-11 	101324.9999999963
1.042292292292291 	300.0000000000188 	1.681022419860156e-11 	101324.9999999964
1.044794794794794 	300.0000000000317 	1.659061339558296e-11 	101324.9999999966
1.047297297297296 	300.0000000000367 	1.511096820395964e-11 	101324.9999999968
1.049799799799799 	299.9999999999947 	1.693567552348663e-11 	101324.9999999968
1.052302302302302 	299.9999999999624 	1.467946757622941e-11 	101324.999999997
1.054804804804804 	299.9999999999374 	1.64053613938057e-11 	101324.999999997
1.057307307307306 	299.9999999999241 	1.509327118787821e-11 	101324.9999999971
1.059809809809809 	299.9999999999615 	1.633856721642412e-11 	101324.9999999973
1.062312312312312 	299.9999999999577 	1.553282844934761e-11 	101324.9999999972
1.064814814814814 	299.9999999999505 	1.554773078077274e-11 	101324.9999999971
1.067317317317317 	299.9999999999203 	1.505406573867085e-11 	101324.999999997
1.069819819819819 	299.9999999999227 	1.508662386738005e-11 	101324.9999999969
1.072322322322321 	299.9999999999912 	1.68078312739921e-11 	101324.9999999971
1.074824824824824 	300.0000000000152 	1.433072708324653e-11 	101324.9999999973
1.077327327327327 	300.0000000000337 	1.587164722400985e-11 	101324.9999999971
1.079829829829829 	300.0000000000421 	1.451921990262221e-11 	101324.9999999969
1.082332332332332 	300.0000000000061 	1.539156336351991e-11 	101324.999999997
1.084834834834834 	299.9999999999785 	1.495772178583391e-11 	101324.9999999971
1.087337337337337 	299.9999999999388 	1.543880658038851e-11 	101324.999999997
1.089839839839839 	299.9999999999276 	1.756683108000432e-11 	101324.9999999968
1.092342342342342 	299.9999999999717 	1.676735215296775e-11 	101324.9999999966
1.094844844844844 	299.9999999999722 	1.79954296111488e-11 	101324.9999999967
1.097347347347347 	299.9999999999392 	1.629376633064237e-11 	101324.9999999965
1.099849849849849 	299.9999999999255 	1.925316217674298e-11 	101324.9999999964
1.102352352352352 	299.9999999999552 	1.693755111669502e-11 	101324.9999999963
1.104854854854854 	299.9999999999752 	1.916577780497672e-11 	101324.9999999964
1.107357357357357 	299.9999999999529 	1.747377422538853e-11 	101324.9999999965
1.109859859859859 	299.9999999999463 	1.922423775612495e-11 	101324.9999999966
1.112362362362362 	300.0000000000127 	1.78692741946395e-11 	101324.9999999965
1.114864864864865 	300.0000000000095 	1.775733353662038e-11 	101324.9999999966
1.117367367367367 	299.9999999999597 	1.862787827608281e-11 	101324.9999999967
1.119869869869869 	299.9999999999237 	1.743979545282722e-11 	101324.9999999969
1.122372372372372 	299.9999999999609 	1.907318927892856e-11 	101324.9999999971
1.124874874874874 	299.9999999999571 	1.758233359115826e-11 	101324.9999999972
1.127377377377377 	299.9999999999651 	1.870513185595577e-11 	101324.9999999971
1.129879879879879 	300.0000000000192 	1.827592298710103e-11 	101324.999999997
1.132382382382382 	300.0000000000398 	1.916634703243459e-11 	101324.9999999968
1.134884884884884 	300.0000000000119 	1.884252731346077e-11 	101324.9999999968
1.137387387387387 	300.0000000000172 	1.885213201245883e-11 	101324.9999999971
1.139889889889889 	299.9999999999646 	1.983667242068508e-11 	101324.9999999974
1.142392392392392 	299.9999999999569 	1.795487558291017e-11 	101324.9999999974
1.144894894894894 	300.0000000000216 	1.932414154530316e-11 	101324.9999999972
1.147397397397397 	300.0000000000009 	1.799304948945107e-11 	101324.9999999971
1.149899899899899 	299.99999999994 	1.900765607631887e-11 	101324.9999999971
1.152402402402402 	299.9999999999259 	1.814157166714572e-11 	101324.9999999969
1.154904904904904 	299.9999999999604 	1.897503480805515e-11 	101324.9999999968
1.157407407407407 	299.9999999999593 	1.813426066141335e-11 	101324.9999999969
1.159909909909909 	299.9999999999304 	1.789915490008611e-11 	101324.9999999969
1.162412412412412 	299.9999999999261 	1.924820614647937e-11 	101324.9999999968
1.164914914914914 	299.9999999999619 	1.756946767039694e-11 	101324.9999999971
1.167417417417417 	299.9999999999708 	1.919502092694541e-11 	101324.9999999975
1.169919919919919 	300.0000000000172 	1.84627778052498e-11 	101324.9999999975
1.172422422422422 	300.000000000046 	1.984536927448228e-11 	101324.9999999973
1.174924924924925 	299.9999999999949 	1.824517096464926e-11 	101324.9999999971
1.177427427427427 	299.9999999999633 	1.856322309678689e-11 	101324.999999997
1.179929929929929 	300.0000000000119 	1.999057632616128e-11 	101324.9999999969
1.182432432432432 	300.0000000000393 	1.889761743930917e-11 	101324.9999999971
1.184934934934934 	300.0000000000078 	2.037488606044442e-11 	101324.999999997
1.187437437437437 	299.9999999999856 	1.899233300764018e-11 	101324.999999997
1.189939939939939 	299.9999999999776 	2.001625513728122e-11 	101324.999999997
1.192442442442442 	299.9999999999316 	1.888834926850892e-11 	101324.9999999969
1.194944944944944 	299.9999999999259 	1.945656537844704e-11 	101324.9999999969
1.197447447447447 	299.9999999999914 	1.807026676587302e-11 	101324.999999997
1.199949949949949 	300.0000000000151 	1.797511932870194e-11 	101324.9999999974
1.202452452452452 	299.9999999999565 	1.937974671419287e-11 	101324.9999999972
1.204954954954955 	299.9999999999483 	1.879669352885352e-11 	101324.9999999971
1.207457457457457 	299.9999999999786 	2.050000200959683e-11 	101324.9999999971
1.20995995995996 	299.9999999999761 	1.951036089200783e-11 	101324.9999999971
1.212462462462462 	299.9999999999835 	2.104290872302695e-11 	101324.9999999971
1.214964964964964 	299.9999999999809 	2.030799005864938e-11 	101324.9999999967
1.217467467467467 	299.9999999999783 	2.159061014571138e-11 	101324.9999999966
1.219969969969969 	299.9999999999633 	2.05177470622726e-11 	101324.9999999966
1.222472472472472 	300.0000000000199 	2.067870287766924e-11 	101324.9999999965
1.224974974974975 	300.0000000000512 	2.14330492147585e-11 	101324.9999999965
1.227477477477477 	299.9999999999939 	2.009779810376711e-11 	101324.9999999965
1.229979979979979 	299.9999999999726 	2.173263855067965e-11 	101324.9999999966
1.232482482482482 	299.9999999999502 	2.001075763610721e-11 	101324.9999999967
1.234984984984984 	299.9999999999554 	2.10852376475674e-11 	101324.9999999971
1.237487487487487 	299.9999999999751 	1.925357135874805e-11 	101324.9999999973
1.239989989989989 	299.9999999999744 	1.942369014805991e-11 	101324.9999999976
1.242492492492492 	300.000000000009 	1.956315982008674e-11 	101324.9999999977
1.244994994994994 	299.9999999999793 	1.76790344743315e-11 	101324.9999999978
1.247497497497497 	299.9999999999754 	1.894035923248428e-11 	101324.999999998
1.249999999999999 	300 	1.833273708954596e-11 	101324.9999999978
