-1.25 	349.1143625364403 	0.00314791122104493 	101325.0232477848
-1.247497497497497 	300.0499081701814 	0.003073881231347885 	101325.0277863493
-1.244994994994995 	300.0019870298434 	0.002807226605193328 	101325.0237356953
-1.242492492492492 	300.0000543663945 	0.002554347619670508 	101325.0285308001
-1.23998998998999 	300.0000205630325 	0.002310714286396607 	101325.0239526314
-1.237487487487487 	300.0000241858969 	0.002080716368968605 	101325.0286325082
-1.234984984984985 	300.0000202665031 	0.001860857438672946 	101325.0239262145
-1.232482482482482 	300.000023940699 	0.001657277927643185 	101325.0283294387
-1.22997997997998 	300.000020080871 	0.001463281866328799 	101325.0237170129
-1.227477477477477 	300.0000235174899 	0.001287359123159883 	101325.0278221645
-1.224974974974975 	300.0000198875941 	0.00111987311454132 	101325.0234962736
-1.222472472472472 	300.0000231570945 	0.0009716561575667225 	101325.0273928291
-1.21996996996997 	300.0000202943946 	0.0008287914677304487 	101325.0239844307
-1.217467467467467 	300.0000235384884 	0.0007031117333635632 	101325.0278364832
-1.214964964964965 	300.0000205932083 	0.0005757236527541692 	101325.0243407048
-1.212462462462462 	300.0000241878116 	0.0004633560259112859 	101325.0285959492
-1.20995995995996 	300.0000213376731 	0.0003490510216927458 	101325.0252233949
-1.207457457457457 	300.0000248439507 	0.0002513352935835465 	101325.0293707738
-1.204954954954955 	300.0000218121342 	0.0001525620196165823 	101325.0257940668
-1.202452452452452 	300.0000253320655 	7.226953600978821e-05 	101325.0299435487
-1.19994994994995 	300.0000221525387 	0.0001031716834921719 	101325.0261950427
-1.197447447447447 	300.0000255521844 	6.925980959663364e-05 	101325.030195431
-1.194944944944945 	300.0000221884926 	0.0001297905799844189 	101325.0262386553
-1.192442442442442 	300.0000251469145 	0.0001664659317116696 	101325.0297149242
-1.18993993993994 	300.0000221069606 	0.0002023985414668789 	101325.026153707
-1.187437437437437 	300.0000237046806 	0.0002012412253878222 	101325.0280130321
-1.184934934934935 	300.0000223477298 	0.0001913428037189999 	101325.0264390873
-1.182432432432432 	300.0000231826789 	0.0001620351888779053 	101325.0273897342
-1.17992992992993 	300.0000226673806 	0.0001441221812711389 	101325.0268127425
-1.177427427427427 	300.0000236240619 	0.0001074967693977968 	101325.0279095572
-1.174924924924925 	300.0000236183826 	8.778105745318448e-05 	101325.0279374627
-1.172422422422422 	300.0000244803908 	8.200885034292347e-05 	101325.0289211356
-1.16991991991992 	300.0000245182726 	5.816193171463039e-05 	101325.0290024764
-1.167417417417417 	300.000025032671 	8.712692647232275e-05 	101325.0295785833
-1.164914914914915 	300.0000248150707 	5.560940574274916e-05 	101325.0293540868
-1.162412412412412 	300.0000249185164 	8.998729785205825e-05 	101325.0294422922
-1.15990990990991 	300.0000244913796 	8.550604234956733e-05 	101325.0289711569
-1.157407407407407 	300.000024356189 	0.0001207222142801458 	101325.0287780119
-1.154904904904904 	300.0000240502401 	0.0001350822760505299 	101325.0284490033
-1.152402402402403 	300.0000239549539 	0.0001679768677814081 	101325.0283050026
-1.1498998998999 	300.0000240351284 	0.0001774718172641734 	101325.0284307346
-1.147397397397397 	300.0000241243831 	0.0002076690486444498 	101325.0285064304
-1.144894894894895 	300.0000245316452 	0.0002110208630588964 	101325.0290145193
-1.142392392392392 	300.0000246960004 	0.0002370285513786392 	101325.0291805993
-1.13988988988989 	300.0000251184305 	0.0002333427208633671 	101325.0297056509
-1.137387387387387 	300.0000251326936 	0.0002503427693920549 	101325.0296990765
-1.134884884884885 	300.0000252554842 	0.0002341616625373526 	101325.0298662511
-1.132382382382382 	300.0000251257939 	0.0002416892971940733 	101325.0296932051
-1.12987987987988 	300.0000250356933 	0.0002211514331706053 	101325.0296118231
-1.127377377377377 	300.0000248287091 	0.0002268833001712216 	101325.0293435715
-1.124874874874875 	300.0000247637514 	0.000204661464647945 	101325.0292855677
-1.122372372372372 	300.0000246915943 	0.0002104940935736285 	101325.0291826995
-1.11986986986987 	300.0000247977994 	0.0001868199021825147 	101325.029324662
-1.117367367367367 	300.0000248995701 	0.0001936002639553632 	101325.0294272769
-1.114864864864865 	300.0000250911018 	0.000168956465516637 	101325.029670065
-1.112362362362362 	300.00002519587 	0.0001766688254507173 	101325.0297794525
-1.10985985985986 	300.0000252949703 	0.0001518214376560168 	101325.0299114489
-1.107357357357357 	300.0000252723065 	0.000160219427177823 	101325.029870577
-1.104854854854855 	300.0000252489034 	0.0001355604905513661 	101325.0298550731
-1.102352352352353 	300.0000251738078 	0.0001448397738609422 	101325.0297535117
-1.09984984984985 	300.0000251776738 	0.0001200961263926649 	101325.0297691508
-1.097347347347347 	300.0000252169417 	0.0001308188009072053 	101325.0298043241
-1.094844844844845 	300.0000253626033 	0.0001055674518380186 	101325.0299873181
-1.092342342342342 	300.0000255302743 	0.0001179784877296766 	101325.0301773723
-1.08983983983984 	300.0000257242577 	9.231655651432497e-05 	101325.0304170321
-1.087337337337337 	300.0000258399218 	0.0001059622844638882 	101325.0305458274
-1.084834834834835 	300.0000258786224 	8.049917367803166e-05 	101325.0305985444
-1.082332332332332 	300.0000257758682 	9.466231705232233e-05 	101325.0304694481
-1.07982982982983 	300.000025599361 	6.980277581489467e-05 	101325.0302657443
-1.077327327327327 	300.000025353638 	8.43214415874461e-05 	101325.0299688514
-1.074824824824825 	300.0000251567719 	6.545475232148742e-05 	101325.0297410191
-1.072322322322323 	300.0000250289496 	7.951817535537404e-05 	101325.0295853981
-1.06981981981982 	300.0000250578768 	6.60990163106218e-05 	101325.0296238335
-1.067317317317317 	300.0000252049733 	7.916013706570413e-05 	101325.0297941927
-1.064814814814815 	300.0000254733238 	6.817884055383808e-05 	101325.0301149894
-1.062312312312312 	300.0000257562148 	7.983945003250614e-05 	101325.0304469237
-1.05980980980981 	300.0000260049525 	7.053384446082821e-05 	101325.030744135
-1.057307307307307 	300.0000261129417 	7.996133380042755e-05 	101325.0308704698
-1.054804804804805 	300.0000260768931 	7.155277400714116e-05 	101325.0308298359
-1.052302302302302 	300.0000258738833 	7.843575784683988e-05 	101325.0305878007
-1.0497997997998 	300.0000255880322 	7.096870475510868e-05 	101325.0302507657
-1.047297297297297 	300.000025269258 	7.595280048504367e-05 	101325.0298727386
-1.044794794794795 	300.0000250248995 	7.014262202243366e-05 	101325.0295844195
-1.042292292292292 	300.0000248864309 	7.416686587378873e-05 	101325.0294198871
-1.03978978978979 	300.0000248942578 	7.046275855617935e-05 	101325.0294294442
-1.037287287287287 	300.0000250080551 	7.386659751933037e-05 	101325.0295632509
-1.034784784784785 	300.0000251887028 	7.187377006058064e-05 	101325.0297768343
-1.032282282282283 	300.0000253587726 	7.429747922909622e-05 	101325.0299782024
-1.02977977977978 	300.0000254735943 	7.31559479943659e-05 	101325.0301144658
-1.027277277277277 	300.0000254974148 	7.424804653911266e-05 	101325.0301429684
-1.024774774774775 	300.0000254397989 	7.343860381956557e-05 	101325.0300748198
-1.022272272272272 	300.0000253264998 	7.346159475159085e-05 	101325.0299408805
-1.01976976976977 	300.0000251988159 	7.30146111171101e-05 	101325.0297903132
-1.017267267267267 	300.0000250887013 	7.26126549027927e-05 	101325.0296608942
-1.014764764764765 	300.0000250105597 	7.258607507528011e-05 	101325.0295686306
-1.012262262262262 	300.0000249594518 	7.218825321632542e-05 	101325.0295075252
-1.00975975975976 	300.0000249154637 	7.226313989264803e-05 	101325.0294543351
-1.007257257257257 	300.0000248615856 	7.198514285936436e-05 	101325.0293896975
-1.004754754754755 	300.0000247922122 	7.182094985763718e-05 	101325.0293076304
-1.002252252252252 	300.0000247217499 	7.162708693262537e-05 	101325.0292253348
-0.9997497497497498 	300.0000246802637 	7.152024973827095e-05 	101325.0291772082
-0.9972472472472473 	300.0000246989831 	7.158043491071755e-05 	101325.0291993266
-0.9947447447447449 	300.0000247926145 	7.184439900403188e-05 	101325.0293092176
-0.9922422422422421 	300.0000249458898 	7.22685504980951e-05 	101325.0294894238
-0.9897397397397399 	300.0000251116884 	7.272618468475086e-05 	101325.0296855585
-0.9872372372372376 	300.0000252266757 	7.30404517952329e-05 	101325.029822822
-0.9847347347347346 	300.0000252333128 	7.305145663473815e-05 	101325.029832285
-0.9822322322322323 	300.0000251008688 	7.267162312208362e-05 	101325.0296760759
-0.9797297297297296 	300.0000248370741 	7.192092008588944e-05 	101325.0293630494
-0.9772272272272275 	300.0000244880508 	7.093226585971809e-05 	101325.0289485795
-0.9747247247247248 	300.0000241249472 	6.990534939061227e-05 	101325.028518028
-0.9722222222222224 	300.0000238223607 	6.905015241086206e-05 	101325.0281606622
-0.9697197197197196 	300.0000236374385 	6.852631071936652e-05 	101325.0279433085
-0.9672172172172175 	300.0000235921833 	6.839213531616855e-05 	101325.0278913416
-0.9647147147147147 	300.0000236688776 	6.859776224513388e-05 	101325.0279828816
-0.9622122122122124 	300.0000238174994 	6.900508693940918e-05 	101325.0281585516
-0.9597097097097099 	300.0000239740368 	6.943506797490652e-05 	101325.0283428853
-0.9572072072072073 	300.000024080988 	6.972969112396665e-05 	101325.0284683721
-0.9547047047047047 	300.0000241032242 	6.978894917425372e-05 	101325.028493448
-0.9522022022022023 	300.0000240330554 	6.959045655219399e-05 	101325.0284099475
-0.9496996996996998 	300.0000238891484 	6.918556986772378e-05 	101325.0282394397
-0.9471971971971973 	300.0000237049742 	6.866416035502997e-05 	101325.0280212099
-0.9446946946946947 	300.0000235156273 	6.812488347323527e-05 	101325.0277972236
-0.9421921921921923 	300.0000233487884 	6.764629328087286e-05 	101325.0275996588
-0.93968968968969 	300.000023217808 	6.726566376327075e-05 	101325.0274445498
-0.9371871871871872 	300.0000231227453 	6.698749356175982e-05 	101325.0273323472
-0.9346846846846848 	300.0000230558019 	6.679183061775557e-05 	101325.0272538384
-0.9321821821821823 	300.0000230080327 	6.665190997699229e-05 	101325.0271980146
-0.9296796796796799 	300.0000229737586 	6.655385073278418e-05 	101325.0271579825
-0.9271771771771771 	300.0000229516345 	6.649190321400322e-05 	101325.0271324171
-0.9246746746746748 	300.0000229430858 	6.646695086456009e-05 	101325.0271225357
-0.9221721721721724 	300.0000229467354 	6.647508037298542e-05 	101325.0271267305
-0.9196696696696698 	300.0000229545755 	6.649220549425501e-05 	101325.0271359593
-0.9171671671671672 	300.000022951797 	6.647641088670004e-05 	101325.0271325521
-0.9146646646646649 	300.0000229191794 	6.637393779104981e-05 	101325.0270934308
-0.9121621621621623 	300.0000228376592 	6.613214652335594e-05 	101325.0269967198
-0.9096596596596597 	300.0000226958674 	6.572211963604499e-05 	101325.0268292813
-0.9071571571571573 	300.0000224954569 	6.5147363875536e-05 	101325.0265923714
-0.9046546546546547 	300.0000222508836 	6.444817584885073e-05 	101325.0263033655
-0.9021521521521524 	300.0000219877983 	6.369986214314174e-05 	101325.0259929358
-0.8996496496496498 	300.0000217385321 	6.299033746157793e-05 	101325.0256986301
-0.8971471471471473 	300.0000215340364 	6.240672697386839e-05 	101325.0254569711
-0.894644644644645 	300.0000213979358 	6.201806093984651e-05 	101325.02529621
-0.892142142142142 	300.0000213429555 	6.185827614216065e-05 	101325.0252312363
-0.8896396396396397 	300.0000213686864 	6.192781035975328e-05 	101325.0252615411
-0.8871371371371374 	300.0000214623968 	6.219186762493047e-05 	101325.0253724133
-0.8846346346346349 	300.0000216032993 	6.258923832002804e-05 	101325.0255387522
-0.8821321321321324 	300.0000217656417 	6.304967548506307e-05 	101325.0257303129
-0.8796296296296297 	300.0000219235715 	6.34992073131757e-05 	101325.0259169516
-0.8771271271271271 	300.0000220551224 	6.387443365575721e-05 	101325.0260726722
-0.8746246246246248 	300.0000221440509 	6.412932478807837e-05 	101325.0261779537
-0.8721221221221224 	300.0000221797644 	6.423170212778353e-05 	101325.026220478
-0.8696196196196196 	300.0000221577058 	6.416853052859698e-05 	101325.0261946821
-0.8671171171171175 	300.0000220781282 	6.393993727053202e-05 	101325.0261007149
-0.8646146146146148 	300.0000219447176 	6.355628176435336e-05 	101325.0259433777
-0.8621121121121121 	300.0000217653965 	6.30406868057091e-05 	101325.0257314309
-0.8596096096096097 	300.0000215506351 	6.242246357064157e-05 	101325.0254772396
-0.857107107107107 	300.0000213132552 	6.173911918057921e-05 	101325.0251963655
-0.8546046046046049 	300.0000210685665 	6.103496609432772e-05 	101325.024906583
-0.8521021021021022 	300.0000208316055 	6.035242496125586e-05 	101325.0246260289
-0.8495995995995997 	300.0000206155304 	5.973024388465723e-05 	101325.0243706924
-0.8470970970970974 	300.0000204299703 	5.919602321675914e-05 	101325.0241518588
-0.8445945945945946 	300.0000202796563 	5.87600977998676e-05 	101325.0239743179
-0.8420920920920922 	300.0000201630712 	5.841925005655693e-05 	101325.0238360645
-0.8395895895895897 	300.0000200732831 	5.815573752075524e-05 	101325.023729702
-0.8370870870870872 	300.0000200017503 	5.794476359747061e-05 	101325.023645096
-0.8345845845845846 	300.0000199400749 	5.776453798743056e-05 	101325.0235723319
-0.8320820820820823 	300.0000198817849 	5.759575059164645e-05 	101325.0235039896
-0.8295795795795798 	300.0000198239319 	5.742912212964424e-05 	101325.0234361428
-0.8270770770770772 	300.0000197662818 	5.726318088317671e-05 	101325.0233680579
-0.8245745745745746 	300.0000197095478 	5.709907040725633e-05 	101325.023301002
-0.8220720720720721 	300.0000196554583 	5.694240206560319e-05 	101325.023236754
-0.8195695695695699 	300.0000196046815 	5.67944920781118e-05 	101325.0231763221
-0.817067067067067 	300.0000195563446 	5.665359792085642e-05 	101325.023119198
-0.8145645645645651 	300.0000195089302 	5.651599798113599e-05 	101325.0230632459
-0.8120620620620621 	300.0000194599887 	5.637231194177362e-05 	101325.0230051327
-0.8095595595595597 	300.0000194058749 	5.621417640056966e-05 	101325.022941089
-0.8070570570570572 	300.0000193435674 	5.603379237037542e-05 	101325.0228677599
-0.8045545545545546 	300.0000192716989 	5.582484364054256e-05 	101325.0227828993
-0.8020520520520523 	300.000019189983 	5.558680109268328e-05 	101325.0226857233
-0.7995495495495494 	300.0000190984927 	5.532040824435724e-05 	101325.0225768556
-0.7970470470470474 	300.0000189980853 	5.50292059797428e-05 	101325.0224579542
-0.7945445445445446 	300.000018890737 	5.471985422409602e-05 	101325.0223312257
-0.7920420420420423 	300.0000187782932 	5.439676568116704e-05 	101325.0221990367
-0.7895395395395397 	300.0000186628224 	5.406604791507155e-05 	101325.0220636662
-0.7870370370370371 	300.0000185465431 	5.373239128177564e-05 	101325.0219271083
-0.7845345345345348 	300.000018431312 	5.339873459836011e-05 	101325.0217908888
-0.7820320320320323 	300.0000183181165 	5.306844091017645e-05 	101325.0216559784
-0.7795295295295296 	300.0000182065929 	5.274218117518667e-05 	101325.0215228401
-0.7770270270270272 	300.0000180965936 	5.242005997203563e-05 	101325.0213915821
-0.7745245245245247 	300.0000179875018 	5.210319489669497e-05 	101325.0212621997
-0.7720220220220222 	300.0000178794768 	5.179133575954565e-05 	101325.021134919
-0.7695195195195199 	300.0000177732325 	5.148705207489431e-05 	101325.0210105272
-0.767017017017017 	300.0000176707658 	5.11938026223091e-05 	101325.0208904923
-0.7645145145145147 	300.0000175741075 	5.091574457422713e-05 	101325.0207767583
-0.7620120120120122 	300.0000174845822 	5.065792672713143e-05 	101325.0206712626
-0.7595095095095097 	300.0000174028887 	5.042307341326061e-05 	101325.0205753254
-0.7570070070070072 	300.0000173293407 	5.021120197632819e-05 	101325.0204890894
-0.7545045045045048 	300.0000172627892 	5.001956823557809e-05 	101325.0204111655
-0.7520020020020022 	300.0000172005027 	4.98401010567916e-05 	101325.0203385696
-0.7494994994994997 	300.0000171397534 	4.96629706094857e-05 	101325.02026696
-0.7469969969969972 	300.0000170763718 	4.947539823639814e-05 	101325.0201911286
-0.7444944944944945 	300.0000170052518 	4.926425359166203e-05 	101325.0201056734
-0.7419919919919924 	300.0000169220971 	4.901851404779424e-05 	101325.020005782
-0.7394894894894897 	300.000016823214 	4.872970098333931e-05 	101325.0198880641
-0.7369869869869872 	300.0000167079772 	4.839532738524893e-05 	101325.0197513871
-0.7344844844844846 	300.0000165776143 	4.802046083110426e-05 	101325.0195976178
-0.7319819819819822 	300.0000164370859 	4.761735889014173e-05 	101325.0194320247
-0.7294794794794797 	300.0000162933551 	4.720676836171379e-05 	101325.0192630267
-0.7269769769769773 	300.0000161557058 	4.681349046288873e-05 	101325.0191010924
-0.7244744744744747 	300.0000160331925 	4.64624841359232e-05 	101325.0189568997
-0.721971971971972 	300.0000159334451 	4.617540468093667e-05 	101325.0188391498
-0.7194694694694695 	300.0000158610973 	4.596273619320815e-05 	101325.0187525475
-0.7169669669669674 	300.0000158150569 	4.582303888247544e-05 	101325.0186964529
-0.7144644644644647 	300.0000157901388 	4.574162461538657e-05 	101325.0186645948
-0.711961961961962 	300.0000157761128 	4.569153743102042e-05 	101325.0186459593
-0.7094594594594597 	300.0000157604288 	4.564000284040034e-05 	101325.0186266201
-0.7069569569569573 	300.0000157308995 	4.555155734218721e-05 	101325.0185919936
-0.7044544544544545 	300.0000156768265 	4.539459493290098e-05 	101325.0185290672
-0.7019519519519523 	300.0000155905805 	4.51473154871374e-05 	101325.0184284936
-0.6994494494494495 	300.0000154693078 	4.480026600254284e-05 	101325.0182865325
-0.6969469469469471 	300.0000153164879 	4.436236425897885e-05 	101325.0181065498
-0.6944444444444446 	300.0000151409327 	4.385977562886693e-05 	101325.017899407
-0.6919419419419421 	300.0000149570772 	4.333307077167718e-05 	101325.0176821253
-0.6894394394394396 	300.0000147812183 	4.283118826308449e-05 	101325.0174748649
-0.6869369369369374 	300.0000146304889 	4.239989024037234e-05 	101325.0172970352
-0.6844344344344344 	300.0000145172496 	4.207526252092578e-05 	101325.0171635221
-0.6819319319319321 	300.0000144476659 	4.187455207167936e-05 	101325.0170817044
-0.6794294294294296 	300.0000144206267 	4.179244361362997e-05 	101325.0170496319
-0.6769269269269272 	300.0000144260433 	4.180168338886725e-05 	101325.0170557106
-0.6744244244244245 	300.0000144475546 	4.185412265155435e-05 	101325.0170802185
-0.6719219219219222 	300.0000144636384 	4.189207455099488e-05 	101325.0170987296
-0.6694194194194195 	300.0000144540703 	4.185690694710655e-05 	101325.0170868333
-0.6669169169169172 	300.0000144019166 	4.170213982820127e-05 	101325.0170251203
-0.6644144144144146 	300.0000142984072 	4.140419721287222e-05 	101325.0169033648
-0.661911911911912 	300.0000141453422 	4.096569773152711e-05 	101325.0167229604
-0.6594094094094097 	300.0000139540237 	4.041908156083117e-05 	101325.0164970783
-0.656906906906907 	300.000013743666 	3.981831258252128e-05 	101325.0162484437
-0.6544044044044046 	300.0000135380979 	3.923048958918029e-05 	101325.0160051051
-0.6519019019019021 	300.0000133608665 	3.872301477842293e-05 	101325.0157950282
-0.6493993993993996 	300.0000132305319 	3.834804817232117e-05 	101325.0156404711
-0.6468968968968971 	300.0000131565927 	3.813347210010404e-05 	101325.0155529808
-0.6443943943943946 	300.000013137178 	3.807222183463887e-05 	101325.015530049
-0.6418918918918921 	300.0000131582254 	3.812333563725175e-05 	101325.0155545165
-0.6393893893893897 	300.000013195131 	3.82179423855139e-05 	101325.0155974507
-0.6368868868868871 	300.0000132183498 	3.827331587572777e-05 	101325.0156242627
-0.6343843843843846 	300.000013200302 	3.821326727263043e-05 	101325.0156026504
-0.6318818818818821 	300.0000131219684 	3.798571851251758e-05 	101325.0155106695
-0.6293793793793795 	300.0000129795699 	3.757909258873636e-05 	101325.0153430792
-0.6268768768768773 	300.0000127848959 	3.70271371077235e-05 	101325.0151139424
-0.6243743743743745 	300.0000125643509 	3.640252184111393e-05 	101325.0148540142
-0.6218718718718721 	300.0000123522689 	3.579963518480738e-05 	101325.0146030359
-0.6193693693693696 	300.0000121799282 	3.530829082451733e-05 	101325.0143991539
-0.6168668668668671 	300.0000120697924 	3.499019745702344e-05 	101325.0142684216
-0.6143643643643645 	300.0000120264544 	3.485978479141918e-05 	101325.014217086
-0.6118618618618621 	300.0000120362299 	3.487900373550069e-05 	101325.0142292033
-0.6093593593593596 	300.000012071274 	3.496906173316392e-05 	101325.0142711007
-0.6068568568568571 	300.0000120968643 	3.503253670765588e-05 	101325.0143016708
-0.6043543543543546 	300.0000120828076 	3.498436876642757e-05 	101325.0142847341
-0.6018518518518521 	300.0000120112987 	3.477469536708554e-05 	101325.014199327
-0.5993493493493496 	300.0000118813944 	3.440175103614258e-05 	101325.0140449423
-0.5968468468468471 	300.0000117085685 	3.3909342348075e-05 	101325.0138401938
-0.5943443443443446 	300.000011518495 	3.336867115176589e-05 	101325.0136155505
-0.591841841841842 	300.0000113381389 	3.28557032270577e-05 	101325.0134031008
-0.5893393393393397 	300.0000111888584 	3.242889306565455e-05 	101325.0132273886
-0.5868368368368371 	300.0000110809769 	3.211671261834921e-05 	101325.0131001346
-0.5843343343343346 	300.0000110128703 	3.191613253470121e-05 	101325.0130196867
-0.5818318318318321 	300.0000109745751 	3.180040203730959e-05 	101325.0129744092
-0.5793293293293297 	300.0000109519507 	3.173058376151628e-05 	101325.0129479502
-0.5768268268268271 	300.0000109316906 	3.166776330638391e-05 	101325.0129240137
-0.5743243243243245 	300.0000109023186 	3.157918254141145e-05 	101325.0128890949
-0.5718218218218221 	300.0000108552316 	3.143956870111365e-05 	101325.0128331122
-0.5693193193193196 	300.0000107848867 	3.12322223517773e-05 	101325.0127490387
-0.5668168168168171 	300.0000106872004 	3.094708874362276e-05 	101325.0126328361
-0.5643143143143147 	300.0000105623355 	3.058451730722827e-05 	101325.0124843743
-0.5618118118118121 	300.0000104149804 	3.015826654830837e-05 	101325.0123090149
-0.5593093093093094 	300.0000102543648 	2.969704209133368e-05 	101325.0121186733
-0.5568068068068072 	300.0000100953357 	2.924344147113418e-05 	101325.0119309815
-0.5543043043043046 	300.000009955017 	2.884465587490664e-05 	101325.011765948
-0.551801801801802 	300.0000098478272 	2.854082615085867e-05 	101325.0116407361
-0.5492992992992995 	300.0000097821832 	2.835260197064596e-05 	101325.0115641092
-0.5467967967967969 	300.000009754841 	2.827065840435182e-05 	101325.0115326098
-0.5442942942942947 	300.0000097523917 	2.825749051066104e-05 	101325.0115302989
-0.5417917917917919 	300.0000097539161 	2.825529125623227e-05 	101325.0115326872
-0.5392892892892895 	300.0000097376766 	2.820174772471948e-05 	101325.0115136535
-0.536786786786787 	300.0000096863845 	2.805013349451454e-05 	101325.0114529152
-0.5342842842842846 	300.0000095923339 	2.777890643618033e-05 	101325.0113417919
-0.531781781781782 	300.0000094601723 	2.740103681474023e-05 	101325.0111855394
-0.5292792792792794 	300.0000093048347 	2.695760227622459e-05 	101325.0110014859
-0.526776776776777 	300.0000091464235 	2.650387866348565e-05 	101325.0108135493
-0.5242742742742745 	300.000009004869 	2.609638519069639e-05 	101325.0106450465
-0.521771771771772 	300.0000088936511 	2.577251704711002e-05 	101325.0105122263
-0.5192692692692695 	300.000008816669 	2.554528119929998e-05 	101325.0104203269
-0.516766766766767 	300.0000087693139 	2.540143564883128e-05 	101325.0103632041
-0.5142642642642645 	300.0000087386098 	2.530561040237079e-05 	101325.0103264371
-0.511761761761762 	300.0000087102883 	2.521847960844539e-05 	101325.010292581
-0.5092592592592596 	300.0000086713216 	2.510250789472199e-05 	101325.0102464621
-0.506756756756757 	300.0000086134689 	2.493579877776838e-05 	101325.0101788155
-0.5042542542542544 	300.0000085356496 	2.47140307176761e-05 	101325.0100875911
-0.5017517517517521 	300.0000084411797 	2.444492360378962e-05 	101325.0099770084
-0.4992492492492494 	300.000008336836 	2.414884356312053e-05 	101325.0098550058
-0.496746746746747 	300.0000082300886 	2.384484366859327e-05 	101325.0097301726
-0.4942442442442445 	300.0000081269387 	2.35496094692571e-05 	101325.0096093682
-0.4917417417417421 	300.0000080310564 	2.327482775457922e-05 	101325.0094967887
-0.4892392392392395 	300.0000079441534 	2.30234922549155e-05 	101325.0093944071
-0.486736736736737 	300.0000078666611 	2.279982397560984e-05 	101325.0093029874
-0.4842342342342345 	300.0000077987215 	2.26028748889469e-05 	101325.0092227512
-0.481731731731732 	300.0000077404967 	2.243156030550556e-05 	101325.0091532276
-0.4792292292292296 	300.0000076894028 	2.228244346335888e-05 	101325.0090925301
-0.4767267267267268 	300.0000076422618 	2.214342980233163e-05 	101325.0090367632
-0.4742242242242246 	300.000007594913 	2.200363689557836e-05 	101325.0089802619
-0.471721721721722 	300.0000075413712 	2.184664929909943e-05 	101325.0089168541
-0.4692192192192195 	300.0000074780343 	2.166158673053909e-05 	101325.0088417005
-0.4667167167167169 	300.0000074029189 	2.144560480784343e-05 	101325.0087529369
-0.4642142142142145 	300.0000073183638 	2.11999623717372e-05 	101325.0086523962
-0.461711711711712 	300.000007227827 	2.09401128549404e-05 	101325.0085451741
-0.4592092092092094 	300.0000071375279 	2.067985070444817e-05 	101325.0084382677
-0.456706706706707 	300.0000070536119 	2.043718789020269e-05 	101325.0083387438
-0.4542042042042045 	300.0000069798631 	2.022540409721969e-05 	101325.0082518818
-0.451701701701702 	300.0000069188946 	2.00464102326169e-05 	101325.0081796371
-0.4491991991991995 	300.0000068683202 	1.989828878499404e-05 	101325.0081197686
-0.4466966966966969 	300.0000068228828 	1.976287421291922e-05 	101325.0080659431
-0.4441941941941945 	300.0000067750327 	1.962055208915252e-05 	101325.0080090333
-0.441691691691692 	300.000006716168 	1.944902917198859e-05 	101325.0079395515
-0.4391891891891895 	300.000006641265 	1.923081723359967e-05 	101325.0078508551
-0.436686686686687 	300.0000065492906 	1.896839660486106e-05 	101325.0077423559
-0.4341841841841846 	300.0000064468934 	1.867601750606996e-05 	101325.007621409
-0.431681681681682 	300.000006346066 	1.839086933780852e-05 	101325.0075026098
-0.4291791791791794 	300.0000062626228 	1.815527795403956e-05 	101325.007404192
-0.426676676676677 	300.0000062103262 	1.800589935055527e-05 	101325.0073424762
-0.4241741741741744 	300.000006196653 	1.796529585588785e-05 	101325.0073260101
-0.421671671671672 	300.0000062184536 	1.802169516929239e-05 	101325.0073513775
-0.4191691691691694 	300.0000062620954 	1.813944323788472e-05 	101325.0074025765
-0.4166666666666669 	300.0000063065071 	1.825934543853754e-05 	101325.0074547884
-0.4141641641641645 	300.0000063286503 	1.831715021024373e-05 	101325.0074813426
-0.411661661661662 	300.0000063120274 	1.826615795477868e-05 	101325.0074613916
-0.4091591591591594 	300.0000062482422 	1.808283998255692e-05 	101325.0073861447
-0.406656656656657 	300.0000061428472 	1.778456332582409e-05 	101325.0072618708
-0.4041541541541545 	300.0000060133642 	1.741787216948411e-05 	101325.0071085559
-0.401651651651652 	300.0000058824658 	1.704851966208771e-05 	101325.0069544108
-0.3991491491491494 	300.0000057757762 	1.674703601239015e-05 	101325.0068282079
-0.396646646646647 	300.0000057110211 	1.656290833684753e-05 	101325.0067520328
-0.3941441441441444 	300.0000056973535 	1.652302042387839e-05 	101325.0067360195
-0.3916416416416419 	300.0000057309023 	1.6616684083009e-05 	101325.0067761696
-0.3891391391391395 	300.0000057981342 	1.680406787515656e-05 	101325.0068558045
-0.3866366366366368 	300.0000058779502 	1.702826278626636e-05 	101325.0069502547
-0.3841341341341344 	300.000005948137 	1.722354360088415e-05 	101325.0070331104
-0.381631631631632 	300.0000059892647 	1.733899550839654e-05 	101325.0070818812
-0.3791291291291294 	300.0000059897073 	1.733688980968346e-05 	101325.0070819413
-0.3766266266266269 	300.0000059448473 	1.720698705907715e-05 	101325.007028529
-0.3741241241241244 	300.0000058592562 	1.69622180154387e-05 	101325.0069268605
-0.371621621621622 	300.0000057442968 	1.663309407511624e-05 	101325.0067905889
-0.3691191191191194 	300.0000056165877 	1.626938336693921e-05 	101325.0066391083
-0.366616616616617 	300.0000054942828 	1.59200676104893e-05 	101325.0064941627
-0.3641141141141143 	300.0000053947201 	1.5637188483959e-05 	101325.0063764655
-0.3616116116116119 	300.0000053325992 	1.546091302994626e-05 	101325.006302838
-0.3591091091091095 	300.0000053166116 	1.541469103724314e-05 	101325.0062838255
-0.356606606606607 	300.0000053485245 	1.550714627153808e-05 	101325.0063219083
-0.3541041041041044 	300.0000054232309 	1.571889170335833e-05 	101325.0064105012
-0.3516016016016019 	300.0000055276108 	1.601564072855804e-05 	101325.0065342795
-0.3490990990990994 	300.0000056430909 	1.634404490898691e-05 	101325.006671259
-0.346596596596597 	300.000005748834 	1.664296717547935e-05 	101325.0067964754
-0.3440940940940944 	300.0000058245502 	1.685830059231615e-05 	101325.006886302
-0.3415915915915919 	300.0000058550641 	1.694367483735582e-05 	101325.0069227135
-0.3390890890890895 	300.0000058332362 	1.688194252865763e-05 	101325.0068970761
-0.3365865865865869 	300.000005762077 	1.667983627449026e-05 	101325.0068126621
-0.3340840840840844 	300.0000056540336 	1.637372646588781e-05 	101325.0066848488
-0.3315815815815819 	300.0000055304233 	1.60246308496092e-05 	101325.0065384394
-0.3290790790790794 	300.0000054154926 	1.569906501948582e-05 	101325.0064024741
-0.3265765765765769 	300.0000053321629 	1.546536455781654e-05 	101325.006304221
-0.3240740740740744 	300.0000052982302 	1.536857540866611e-05 	101325.0062637428
-0.3215715715715718 	300.0000053202314 	1.543055934389037e-05 	101325.0062896417
-0.3190690690690695 	300.0000053938748 	1.564006802275583e-05 	101325.006377017
-0.3165665665665668 	300.0000055053379 	1.595381756565633e-05 	101325.0065085849
-0.3140640640640644 	300.0000056327896 	1.631593290282136e-05 	101325.0066592489
-0.311561561561562 	300.0000057538563 	1.66603622147503e-05 	101325.0068027448
-0.3090590590590593 	300.0000058515415 	1.693942699698473e-05 	101325.006917962
-0.3065565565565568 	300.0000059153185 	1.712469378875024e-05 	101325.006993269
-0.3040540540540545 	300.0000059448029 	1.72121289087274e-05 	101325.0070280578
-0.3015515515515518 	300.0000059476444 	1.722549891538552e-05 	101325.0070312126
-0.2990490490490494 	300.0000059354044 	1.719417361277817e-05 	101325.0070170163
-0.2965465465465469 	300.000005921317 	1.715599909719389e-05 	101325.007000078
-0.2940440440440444 	300.0000059138933 	1.7135748692251e-05 	101325.0069911497
-0.2915415415415418 	300.0000059172895 	1.714433685281936e-05 	101325.0069950919
-0.2890390390390395 	300.0000059309428 	1.718344034836623e-05 	101325.0070112746
-0.2865365365365368 	300.0000059517412 	1.72419299720604e-05 	101325.0070360102
-0.2840340340340343 	300.0000059769916 	1.731572550712439e-05 	101325.0070659792
-0.2815315315315318 	300.00000600632 	1.740335898751857e-05 	101325.0071011193
-0.2790290290290295 	300.0000060437879 	1.75141713938239e-05 	101325.0071455728
-0.2765265265265269 	300.0000060951815 	1.766552377495441e-05 	101325.0072062454
-0.2740240240240244 	300.0000061657468 	1.786988591847701e-05 	101325.0072896116
-0.2715215215215219 	300.0000062574536 	1.813499208029486e-05 	101325.0073980513
-0.2690190190190194 	300.0000063664475 	1.844732162051322e-05 	101325.0075271147
-0.2665165165165169 	300.0000064833783 	1.87797267003021e-05 	101325.0076649146
-0.2640140140140144 	300.0000065928064 	1.909166139047662e-05 	101325.0077942201
-0.2615115115115119 	300.0000066797731 	1.93377433713766e-05 	101325.0078967082
-0.2590090090090094 	300.0000067316369 	1.948742349109663e-05 	101325.0079582039
-0.2565065065065068 	300.0000067448448 	1.952582506737959e-05 	101325.0079734656
-0.2540040040040044 	300.0000067241886 	1.947121976356834e-05 	101325.0079490548
-0.2515015015015019 	300.0000066853202 	1.936679606389624e-05 	101325.00790305
-0.2489989989989994 	300.0000066497414 	1.92716434710725e-05 	101325.0078611413
-0.2464964964964968 	300.0000066401085 	1.925194674555525e-05 	101325.00785014
-0.2439939939939944 	300.0000066745314 	1.935415168347734e-05 	101325.0078909313
-0.2414914914914919 	300.0000067603689 	1.960200879526586e-05 	101325.0079926387
-0.2389889889889893 	300.0000068932998 	1.99817250478058e-05 	101325.0081496761
-0.2364864864864869 	300.0000070568901 	2.044590390153422e-05 	101325.0083427994
-0.2339839839839843 	300.0000072270419 	2.093139722802515e-05 	101325.0085442238
-0.2314814814814819 	300.0000073804224 	2.136714297438582e-05 	101325.0087251828
-0.2289789789789792 	300.0000074972195 	2.170298237559334e-05 	101325.0088634209
-0.2264764764764769 	300.0000075696438 	2.191415457393556e-05 	101325.0089488155
-0.2239739739739743 	300.0000076010105 	2.200931287774821e-05 	101325.0089857306
-0.2214714714714718 	300.0000076056429 	2.203133462246325e-05 	101325.0089913457
-0.2189689689689693 	300.0000076047837 	2.203564569642259e-05 	101325.0089902542
-0.2164664664664669 	300.0000076189858 	2.208235412922865e-05 	101325.0090070392
-0.2139639639639643 	300.0000076629201 	2.221259720740615e-05 	101325.0090593639
-0.2114614614614618 	300.0000077425918 	2.244070976097678e-05 	101325.009153513
-0.2089589589589593 	300.000007852639 	2.275515330824444e-05 	101325.0092835964
-0.2064564564564568 	300.0000079802014 	2.31186554662571e-05 	101325.0094345526
-0.2039539539539543 	300.0000081095494 	2.348953687444265e-05 	101325.009587827
-0.2014514514514518 	300.000008228021 	2.382959297553492e-05 	101325.0097276724
-0.1989489489489494 	300.0000083282411 	2.411992007949061e-05 	101325.0098459901
-0.1964464464464468 	300.0000084116208 	2.436470812810168e-05 	101325.0099443148
-0.1939439439439443 	300.0000084860674 	2.458392071126108e-05 	101325.0100322521
-0.1914414414414418 	300.0000085626098 	2.481027984526802e-05 	101325.0101229583
-0.1889389389389393 	300.0000086514131 	2.506762202462366e-05 	101325.0102275492
-0.1864364364364368 	300.0000087555612 	2.536779818763e-05 	101325.0103505276
-0.1839339339339343 	300.000008871321 	2.570103435498321e-05 	101325.0104876782
-0.1814314314314318 	300.000008989395 	2.603734537580015e-05 	101325.0106272066
-0.1789289289289293 	300.0000090961784 	2.634430030936365e-05 	101325.0107538986
-0.1764264264264268 	300.0000091818193 	2.658944947554428e-05 	101325.0108548918
-0.1739239239239243 	300.0000092409181 	2.676342061584014e-05 	101325.0109250977
-0.1714214214214218 	300.0000092794468 	2.687995770478233e-05 	101325.0109703275
-0.1689189189189193 	300.0000093101315 	2.697555077251644e-05 	101325.0110068033
-0.1664164164164168 	300.0000093527681 	2.710610180846122e-05 	101325.0110569855
-0.1639139139139143 	300.0000094254885 	2.73204891127534e-05 	101325.0111429519
-0.1614114114114118 	300.0000095408068 	2.765464408807731e-05 	101325.0112791237
-0.1589089089089093 	300.0000096992287 	2.81099876073458e-05 	101325.0114665124
-0.1564064064064068 	300.000009888848 	2.865038606155875e-05 	101325.0116906926
-0.1539039039039043 	300.0000100868518 	2.921475565848873e-05 	101325.0119246927
-0.1514014014014018 	300.000010265741 	2.972247927212201e-05 	101325.012135997
-0.1488988988988993 	300.0000104004526 	3.01077266039423e-05 	101325.0122953852
-0.1463963963963968 	300.0000104766714 	3.032877049915363e-05 	101325.0123854347
-0.1438938938938943 	300.0000104942379 	3.038585695746713e-05 	101325.0124064729
-0.1413913913913918 	300.0000104699708 	3.032735821586054e-05 	101325.0123778838
-0.1388888888888893 	300.0000104328013 	3.023055694597243e-05 	101325.0123337609
-0.1363863863863868 	300.0000104158634 	3.019367127897294e-05 	101325.0123140834
-0.1338838838838843 	300.0000104500041 	3.029960299767298e-05 	101325.0123544173
-0.1313813813813818 	300.0000105537131 	3.059907209630503e-05 	101325.0124765782
-0.1288788788788793 	300.0000107274463 	3.109727047359554e-05 	101325.0126821492
-0.1263763763763768 	300.0000109549523 	3.174358648306961e-05 	101325.0129510055
-0.1238738738738743 	300.0000112044366 	3.245376229503284e-05 	101325.0132461454
-0.1213713713713717 	300.0000114392855 	3.312125953601216e-05 	101325.0135236561
-0.1188688688688693 	300.0000116260559 	3.365414325490676e-05 	101325.0137442723
-0.1163663663663668 	300.0000117433133 	3.399485967301416e-05 	101325.013883426
-0.1138638638638643 	300.0000117894625 	3.413295342776718e-05 	101325.0139376793
-0.1113613613613618 	300.0000117791997 	3.411511722840864e-05 	101325.013925557
-0.1088588588588592 	300.0000117422996 	3.402028993123848e-05 	101325.0138819964
-0.1063563563563568 	300.0000117134244 	3.394754350130359e-05 	101325.0138479476
-0.1038538538538543 	300.0000117227595 	3.39813555658605e-05 	101325.0138589134
-0.1013513513513517 	300.0000117882248 	3.416996629867151e-05 	101325.0139360111
-0.09884884884884926 	300.000011910984 	3.452236562101334e-05 	101325.0140814787
-0.09634634634634676 	300.0000120786093 	3.499888150700823e-05 	101325.0142797433
-0.09384384384384425 	300.0000122682891 	3.553952275392284e-05 	101325.0145038501
-0.09134134134134177 	300.0000124557901 	3.607553030846777e-05 	101325.0147250117
-0.08883883883883925 	300.0000126219332 	3.655363488337508e-05 	101325.0149214993
-0.08633633633633674 	300.0000127589119 	3.695302639869147e-05 	101325.0150838005
-0.08383383383383426 	300.000012870018 	3.727668564329926e-05 	101325.0152149274
-0.08133133133133173 	300.0000129639822 	3.755414028963261e-05 	101325.0153262939
-0.07882882882882926 	300.0000130522268 	3.781341797188414e-05 	101325.0154309867
-0.07632632632632676 	300.0000131423247 	3.807335799925941e-05 	101325.0155372694
-0.07382382382382424 	300.0000132332483 	3.833533110045827e-05 	101325.0156449858
-0.07132132132132173 	300.0000133193525 	3.857920771715486e-05 	101325.0157462865
-0.06881881881881925 	300.0000133902465 	3.878350923956762e-05 	101325.0158302666
-0.06631631631631671 	300.0000134402125 	3.892842047166152e-05 	101325.0158894614
-0.06381381381381425 	300.0000134709527 	3.902119900969217e-05 	101325.0159255214
-0.06131131131131173 	300.0000134931034 	3.909311541360371e-05 	101325.0159517032
-0.05880880880880923 	300.0000135259699 	3.919592898630914e-05 	101325.0159906959
-0.05630630630630672 	300.0000135914507 	3.939185713128174e-05 	101325.0160679566
-0.05380380380380424 	300.0000137055217 	3.972127938346623e-05 	101325.0162025095
-0.05130130130130173 	300.0000138711022 	4.019678154255807e-05 	101325.0163983522
-0.04879879879879922 	300.0000140750763 	4.077855003565782e-05 	101325.0166398814
-0.04629629629629672 	300.0000142898461 	4.138775578616391e-05 	101325.0168938568
-0.04379379379379422 	300.0000144795657 	4.192626196047656e-05 	101325.0171180603
-0.04129129129129173 	300.0000146114238 	4.229996977531179e-05 	101325.0172739039
-0.03878878878878922 	300.0000146668509 	4.246216341829012e-05 	101325.0173393049
-0.03628628628628671 	300.0000146484629 	4.241734640542588e-05 	101325.0173176361
-0.03378378378378422 	300.0000145815076 	4.223855634685333e-05 	101325.0172387004
-0.03128128128128172 	300.0000145068633 	4.203798811399287e-05 	101325.0171502331
-0.02877877877877922 	300.0000144668336 	4.193207238064418e-05 	101325.017102739
-0.0262762762762767 	300.0000144926494 	4.201261679750324e-05 	101325.0171335396
-0.02377377377377422 	300.0000145957562 	4.230386866263404e-05 	101325.01725498
-0.0212712712712717 	300.0000147609996 	4.277237177577566e-05 	101325.0174507833
-0.01876876876876921 	300.0000149570915 	4.332534298085628e-05 	101325.017682366
-0.01626626626626671 	300.0000151437165 	4.385300296217569e-05 	101325.0179028512
-0.0137637637637642 	300.0000152871659 	4.426393797387592e-05 	101325.0180727032
-0.0112612612612617 	300.0000153704809 	4.45041967091506e-05 	101325.0181710438
-0.008758758758759198 	300.0000153944103 	4.45810030982629e-05 	101325.0181995209
-0.006256256256256697 	300.0000153761881 	4.4536665479358e-05 	101325.0181782767
-0.003753753753754195 	300.0000153411219 	4.444315446292508e-05 	101325.018136512
-0.001251251251251693 	300.0000153120793 	4.436516446248185e-05 	101325.0181020529
0.00125125125125081 	300.000015305627 	4.434807940632406e-05 	101325.0180942422
0.003753753753753312 	300.0000153291632 	4.441793583211944e-05 	101325.0181220932
0.006256256256255817 	300.0000153835733 	4.4574076961071e-05 	101325.0181866943
0.008758758758758317 	300.0000154670715 	4.481529018748989e-05 	101325.0182851595
0.01126126126126082 	300.000015575385 	4.512661635534206e-05 	101325.0184131891
0.01376376376376332 	300.0000157034791 	4.549546335192296e-05 	101325.0185649259
0.01626626626626582 	300.0000158438808 	4.589769635543458e-05 	101325.0187307555
0.01876876876876833 	300.0000159829247 	4.629353993426624e-05 	101325.0188953273
0.02127127127127083 	300.0000161036859 	4.663780522630547e-05 	101325.0190381059
0.02377377377377332 	300.0000161879906 	4.68743840938274e-05 	101325.0191374466
0.02627627627627583 	300.0000162215049 	4.69723489375911e-05 	101325.0191774249
0.02877877877877833 	300.0000162028429 	4.692077599391188e-05 	101325.0191549094
0.03128128128128083 	300.0000161422284 	4.675458433014289e-05 	101325.0190835166
0.03378378378378333 	300.0000160647411 	4.65429736086023e-05 	101325.0189920762
0.03628628628628584 	300.0000160018016 	4.636958656239097e-05 	101325.018917371
0.03878878878878834 	300.0000159818435 	4.631943918064376e-05 	101325.018893583
0.04129129129129084 	300.0000160227139 	4.643696583599029e-05 	101325.0189419882
0.04379379379379333 	300.0000161260051 	4.673162360333099e-05 	101325.0190641959
0.04629629629629585 	300.0000162755684 	4.715474577066458e-05 	101325.0192412745
0.04879879879879834 	300.000016443021 	4.762732581824188e-05 	101325.0194391793
0.05130130130130085 	300.0000165949343 	4.805727629876774e-05 	101325.0196185833
0.05380380380380335 	300.0000167023143 	4.83607591932495e-05 	101325.0197454477
0.05630630630630584 	300.0000167477049 	4.849302434856591e-05 	101325.0197993321
0.05880880880880836 	300.0000167293223 	4.844337940181226e-05 	101325.0197776928
0.06131131131131085 	300.0000166598697 	4.825084125300765e-05 	101325.0196953467
0.06381381381381336 	300.0000165619756 	4.797654613091979e-05 	101325.0195795786
0.06631631631631586 	300.0000164628785 	4.769925666911029e-05 	101325.0194626875
0.06881881881881835 	300.0000163882718 	4.748953028698181e-05 	101325.019374319
0.07132132132132088 	300.0000163554827 	4.739650218860399e-05 	101325.0193353912
0.07382382382382337 	300.0000163712087 	4.744236158519288e-05 	101325.0193543635
0.07632632632632587 	300.000016432218 	4.761221220838016e-05 	101325.0194261561
0.07882882882882837 	300.000016523251 	4.786871493539604e-05 	101325.0195337782
0.08133133133133086 	300.0000166237904 	4.81499657387659e-05 	101325.0196523701
0.08383383383383337 	300.0000167106056 	4.839462694862145e-05 	101325.0197548692
0.08633633633633589 	300.0000167636798 	4.85443468109399e-05 	101325.0198180169
0.08883883883883838 	300.0000167721203 	4.856759994004888e-05 	101325.0198276825
0.09134134134134086 	300.0000167337092 	4.846126447280234e-05 	101325.0197825265
0.09384384384384339 	300.0000166591843 	4.825300680071354e-05 	101325.0196948494
0.09634634634634588 	300.0000165689538 	4.80009757335553e-05 	101325.0195879477
0.09884884884884838 	300.0000164863836 	4.776822976901405e-05 	101325.0194902879
0.1013513513513509 	300.0000164339949 	4.762201173053324e-05 	101325.0194280335
0.1038538538538534 	300.0000164253116 	4.759764331800063e-05 	101325.0194179936
0.1063563563563559 	300.000016463493 	4.770401495477666e-05 	101325.0194628369
0.1088588588588584 	300.0000165373446 	4.791007444038445e-05 	101325.0195499995
0.1113613613613609 	300.0000166256373 	4.815714611054735e-05 	101325.0196548167
0.1138638638638634 	300.0000167038183 	4.837589729785534e-05 	101325.0197471536
0.1163663663663659 	300.0000167480215 	4.849723451382478e-05 	101325.0197994413
0.1188688688688684 	300.0000167432824 	4.848336987207815e-05 	101325.0197938192
0.1213713713713709 	300.0000166864624 	4.832063324455293e-05 	101325.0197266093
0.1238738738738734 	300.0000165865659 	4.80401365608354e-05 	101325.0196089669
0.1263763763763759 	300.0000164636888 	4.769211376285408e-05 	101325.0194635504
0.1288788788788784 	300.000016340701 	4.734404331196711e-05 	101325.0193182673
0.1313813813813809 	300.0000162398467 	4.705825702206364e-05 	101325.0191990167
0.1338838838838834 	300.0000161760522 	4.687429646191112e-05 	101325.0191234766
0.1363863863863859 	300.0000161542389 	4.680906708042215e-05 	101325.0190973044
0.1388888888888884 	300.000016168219 	4.684230235153906e-05 	101325.0191134733
0.1413913913913909 	300.0000162032055 	4.693735406533336e-05 	101325.0191547639
0.1438938938938934 	300.0000162402754 	4.703687521438893e-05 	101325.0191985853
0.1463963963963959 	300.000016260515 	4.709124761362929e-05 	101325.0192227242
0.1488988988988985 	300.0000162498944 	4.705862963158032e-05 	101325.0192105023
0.1514014014014009 	300.0000162022916 	4.692155602608639e-05 	101325.0191543323
0.1539039039039035 	300.0000161196776 	4.668786102820976e-05 	101325.0190570483
0.1564064064064059 	300.0000160124715 	4.638330528458832e-05 	101325.0189307711
0.1589089089089084 	300.0000158965504 	4.605471145182718e-05 	101325.0187937394
0.1614114114114109 	300.0000157884602 	4.574592418830187e-05 	101325.0186659575
0.1639139139139134 	300.0000157029356 	4.5502546713097e-05 	101325.0185648368
0.166416416416416 	300.000015650224 	4.534844260978814e-05 	101325.0185017675
0.1689189189189185 	300.0000156324297 	4.529413327104415e-05 	101325.0184801166
0.1714214214214209 	300.0000156452495 	4.532707528740998e-05 	101325.0184949564
0.1739239239239235 	300.0000156788255 	4.541851733482937e-05 	101325.0185344509
0.1764264264264259 	300.0000157195581 	4.553220583538764e-05 	101325.0185825264
0.1789289289289284 	300.000015753152 	4.562365669788343e-05 	101325.0186221247
0.181431431431431 	300.0000157664277 	4.566055008231891e-05 	101325.0186382675
0.1839339339339334 	300.0000157510446 	4.561415891412833e-05 	101325.0186204381
0.186436436436436 	300.0000157028514 	4.547692154937563e-05 	101325.0185640217
0.1889389389389385 	300.000015623726 	4.525031810190875e-05 	101325.018470648
0.191441441441441 	300.000015519274 	4.4951776232294e-05 	101325.0183474339
0.1939439439439434 	300.0000153987885 	4.460844939032533e-05 	101325.0182053542
0.196446446446446 	300.0000152735283 	4.424872219655955e-05 	101325.0180571391
0.1989489489489485 	300.0000151536893 	4.390452411855242e-05 	101325.017915134
0.2014514514514509 	300.000015047688 	4.359810250888544e-05 	101325.0177894862
0.2039539539539535 	300.000014961183 	4.334777431232615e-05 	101325.0176868567
0.2064564564564559 	300.0000148960966 	4.315728340264488e-05 	101325.0176097271
0.2089589589589585 	300.0000148512939 	4.302510323308235e-05 	101325.0175563462
0.211461461461461 	300.0000148215033 	4.293660881584044e-05 	101325.0175212264
0.2139639639639635 	300.0000148004216 	4.287150477180312e-05 	101325.0174960375
0.2164664664664659 	300.0000147790569 	4.280706804667122e-05 	101325.0174707408
0.2189689689689684 	300.0000147485651 	4.271568331833126e-05 	101325.0174348397
0.221471471471471 	300.0000147007997 	4.257603100590807e-05 	101325.017378617
0.2239739739739735 	300.0000146291658 	4.236730456511068e-05 	101325.0172942754
0.226476476476476 	300.0000145298552 	4.207967983726213e-05 	101325.0171769624
0.2289789789789785 	300.0000144018104 	4.170969994845438e-05 	101325.0170256798
0.231481481481481 	300.0000142478524 	4.126686557106884e-05 	101325.0168439065
0.2339839839839835 	300.0000140750652 	4.07705963978795e-05 	101325.0166396061
0.236486486486486 	300.0000138931986 	4.024718732196975e-05 	101325.0164243977
0.2389889889889885 	300.0000137134688 	3.973103051120345e-05 	101325.0162120148
0.241491491491491 	300.0000135478562 	3.925532130370202e-05 	101325.0160164469
0.2439939939939935 	300.0000134074372 	3.885084843874445e-05 	101325.0158501021
0.246496496496496 	300.0000132993302 	3.853824251766787e-05 	101325.0157221527
0.2489989989989985 	300.0000132277931 	3.833073532865819e-05 	101325.0156373188
0.251501501501501 	300.0000131923775 	3.822683611750497e-05 	101325.0155954006
0.2540040040040035 	300.0000131891074 	3.821512846505549e-05 	101325.0155916287
0.256506506506506 	300.0000132112128 	3.827595430050224e-05 	101325.0156176267
0.2590090090090086 	300.0000132488972 	3.838231894500445e-05 	101325.0156626377
0.261511511511511 	300.0000132933357 	3.850692838912417e-05 	101325.015714805
0.2640140140140135 	300.0000133335836 	3.861976612096582e-05 	101325.0157625073
0.2665165165165161 	300.0000133614676 	3.869920060107443e-05 	101325.0157956638
0.2690190190190185 	300.0000133710792 	3.872515068008001e-05 	101325.0158066953
0.271521521521521 	300.000013357841 	3.868564563928672e-05 	101325.0157909873
0.2740240240240235 	300.0000133205922 	3.857849576050488e-05 	101325.0157469621
0.276526526526526 	300.0000132603064 	3.840495728825572e-05 	101325.0156758279
0.2790290290290286 	300.0000131798311 	3.817471445963095e-05 	101325.0155810381
0.281531531531531 	300.0000130837039 	3.789794121413301e-05 	101325.0154675244
0.2840340340340335 	300.0000129766389 	3.758900726382809e-05 	101325.0153408226
0.2865365365365361 	300.0000128628457 	3.726129681716747e-05 	101325.0152063491
0.2890390390390385 	300.0000127467927 	3.692591259960841e-05 	101325.0150689916
0.291541541541541 	300.0000126316548 	3.659372770516731e-05 	101325.0149328437
0.2940440440440436 	300.0000125201 	3.627085764235853e-05 	101325.0148009699
0.296546546546546 	300.0000124137932 	3.596317914205017e-05 	101325.014675328
0.2990490490490486 	300.0000123132731 	3.567230614247125e-05 	101325.0145567343
0.3015515515515511 	300.000012218837 	3.539718043368432e-05 	101325.0144447411
0.3040540540540535 	300.0000121280978 	3.513399870912844e-05 	101325.0143375581
0.3065565565565562 	300.000012038944 	3.487429198442878e-05 	101325.0142322086
0.3090590590590585 	300.0000119483959 	3.461147420865839e-05 	101325.0141251656
0.3115615615615611 	300.0000118537275 	3.433762987317558e-05 	101325.0140134714
0.3140640640640635 	300.000011754388 	3.404941321784327e-05 	101325.013895714
0.316566566566566 	300.0000116499224 	3.374799216630629e-05 	101325.0137723064
0.3190690690690687 	300.0000115421682 	3.343725514046949e-05 	101325.0136452325
0.3215715715715711 	300.0000114343493 	3.312522077991736e-05 	101325.0135174947
0.3240740740740735 	300.0000113284291 	3.28192141481606e-05 	101325.0133923585
0.326576576576576 	300.0000112268484 	3.252588903957733e-05 	101325.0132725646
0.3290790790790786 	300.0000111316707 	3.224848650456343e-05 	101325.0131595382
0.3315815815815811 	300.000011041404 	3.198579624235388e-05 	101325.0130527172
0.3340840840840836 	300.0000109539368 	3.173181845831922e-05 	101325.0129494413
0.3365865865865861 	300.0000108661063 	3.147572985241064e-05 	101325.0128454308
0.3390890890890886 	300.0000107732781 	3.120587974486047e-05 	101325.0127357256
0.3415915915915911 	300.0000106719484 	3.091253254437246e-05 	101325.012616216
0.3440940940940935 	300.000010561031 	3.059235508409732e-05 	101325.0124853147
0.3465965965965962 	300.0000104426213 	3.025017491533817e-05 	101325.0123449546
0.3490990990990985 	300.0000103204596 	2.989850101007724e-05 	101325.0122005356
0.3516016016016011 	300.0000102013587 	2.955577432986527e-05 	101325.0120597849
0.3541041041041035 	300.0000100923222 	2.924162028819891e-05 	101325.0119308681
0.3566066066066061 	300.0000099987257 	2.897241049742526e-05 	101325.0118204892
0.3591091091091085 	300.000009924 	2.87562497319311e-05 	101325.0117322263
0.3616116116116112 	300.0000098672317 	2.858986829298811e-05 	101325.0116650524
0.3641141141141137 	300.0000098228819 	2.845831534021293e-05 	101325.011612739
0.3666166166166161 	300.0000097823312 	2.833710390631263e-05 	101325.0115648129
0.3691191191191185 	300.0000097354323 	2.81966791016159e-05 	101325.0115088708
0.371621621621621 	300.0000096717939 	2.801067115441235e-05 	101325.0114337214
0.3741241241241237 	300.0000095862316 	2.776208429088075e-05 	101325.0113324175
0.3766266266266261 	300.0000094776152 	2.744904722345574e-05 	101325.0112041011
0.3791291291291286 	300.0000093507734 	2.708524565018738e-05 	101325.0110543061
0.3816316316316311 	300.0000092144942 	2.669513950575342e-05 	101325.0108934683
0.3841341341341336 	300.0000090796992 	2.630706760971875e-05 	101325.0107338066
0.3866366366366362 	300.0000089546364 	2.594674235333305e-05 	101325.0105860555
0.3891391391391387 	300.0000088456524 	2.56321354157921e-05 	101325.0104573337
0.391641641641641 	300.0000087552527 	2.536963556519008e-05 	101325.0103502746
0.3941441441441436 	300.0000086816567 	2.515509741315095e-05 	101325.0102632229
0.3966466466466462 	300.0000086206201 	2.497639683982225e-05 	101325.0101910802
0.3991491491491486 	300.0000085656391 	2.481503264263007e-05 	101325.0101262737
0.4016516516516512 	300.0000085096231 	2.465064682671513e-05 	101325.0100601274
0.4041541541541536 	300.0000084459666 	2.446404577287028e-05 	101325.0099846779
0.4066566566566561 	300.000008369464 	2.424104922863431e-05 	101325.0098942229
0.4091591591591587 	300.0000082785412 	2.397743247242236e-05 	101325.0097865619
0.4116616616616612 	300.000008174773 	2.367841596222307e-05 	101325.0096638932
0.4141641641641635 	300.0000080635389 	2.335867467256216e-05 	101325.0095323566
0.4166666666666662 	300.0000079514488 	2.30374669913711e-05 	101325.0094001092
0.4191691691691687 	300.0000078450913 	2.273159203815663e-05 	101325.0092746962
0.421671671671671 	300.000007748578 	2.245168701401119e-05 	101325.0091603401
0.4241741741741737 	300.0000076608317 	2.219674059975736e-05 	101325.0090567187
0.4266766766766761 	300.0000075789586 	2.195830785074522e-05 	101325.0089599365
0.4291791791791785 	300.0000074985634 	2.172320811536309e-05 	101325.0088644549
0.4316816816816812 	300.000007414719 	2.1478132071151e-05 	101325.0087652726
0.4341841841841836 	300.0000073256124 	2.121945899938811e-05 	101325.0086598956
0.4366866866866862 	300.0000072315285 	2.094793265019686e-05 	101325.0085489304
0.4391891891891885 	300.0000071356257 	2.067092384158778e-05 	101325.0084352939
0.4416916916916913 	300.000007040245 	2.039666621651978e-05 	101325.0083226317
0.4441941941941936 	300.000006947634 	2.012842561531616e-05 	101325.0082133341
0.4466966966966961 	300.0000068577755 	1.986945218153738e-05 	101325.0081075798
0.4491991991991987 	300.000006770282 	1.961553593974312e-05 	101325.0080040136
0.4517017017017012 	300.0000066827895 	1.936213158498034e-05 	101325.0079007391
0.4542042042042035 	300.0000065944314 	1.910584761131838e-05 	101325.0077961665
0.4567067067067062 	300.0000065046243 	1.884438180945903e-05 	101325.0076898889
0.4592092092092087 	300.0000064139353 	1.858255026500858e-05 	101325.0075828378
0.4617117117117112 	300.0000063247673 	1.832305301167381e-05 	101325.0074768126
0.4642142142142137 	300.0000062377185 	1.807143231038605e-05 	101325.0073739523
0.4667167167167162 	300.0000061548625 	1.783078006343952e-05 	101325.0072756488
0.4692192192192187 	300.0000060752565 	1.75998300101146e-05 	101325.0071816631
0.4717217217217212 	300.0000059983287 	1.737728858397135e-05 	101325.0070905055
0.4742242242242236 	300.0000059211859 	1.715398903825156e-05 	101325.006999693
0.4767267267267262 	300.0000058417718 	1.692266587201447e-05 	101325.0069058534
0.4792292292292287 	300.0000057569881 	1.667568091243321e-05 	101325.0068055317
0.4817317317317312 	300.000005664196 	1.640548094931531e-05 	101325.0066959134
0.4842342342342336 	300.000005562196 	1.611167888980302e-05 	101325.0065756205
0.4867367367367362 	300.0000054523425 	1.579492422293917e-05 	101325.0064459772
0.4892392392392387 	300.0000053382276 	1.546496709654884e-05 	101325.0063108731
0.4917417417417412 	300.0000052240714 	1.513675827194366e-05 	101325.0061759821
0.4942442442442437 	300.0000051156159 	1.482612072859138e-05 	101325.0060482547
0.4967467467467462 	300.0000050192765 	1.454959075273013e-05 	101325.005934371
0.4992492492492487 	300.000004938225 	1.431542952741856e-05 	101325.0058386028
0.5017517517517511 	300.000004873154 	1.412516047930913e-05 	101325.0057615201
0.5042542542542537 	300.0000048202664 	1.396832635473689e-05 	101325.0056988923
0.5067567567567562 	300.0000047720577 	1.382542070463346e-05 	101325.0056420785
0.5092592592592589 	300.0000047198795 	1.367141184908647e-05 	101325.0055804427
0.5117617617617611 	300.0000046546218 	1.347905040391224e-05 	101325.0055033541
0.5142642642642637 	300.0000045691962 	1.323060231021519e-05 	101325.00540234
0.5167667667667663 	300.0000044605255 	1.291681612128334e-05 	101325.0052739823
0.5192692692692688 	300.0000043309789 	1.254499864373502e-05 	101325.0051211218
0.5217717717717714 	300.0000041883984 	1.213652835422447e-05 	101325.0049523386
0.5242742742742736 	300.0000040432287 	1.171969651997695e-05 	101325.0047805936
0.5267767767767763 	300.0000039071486 	1.132862274082615e-05 	101325.0046195384
0.5292792792792789 	300.0000037894594 	1.098939775182614e-05 	101325.0044803031
0.5317817817817813 	300.0000036958706 	1.071829108985419e-05 	101325.0043696262
0.5342842842842837 	300.0000036270832 	1.051540136276391e-05 	101325.0042878012
0.5367867867867864 	300.0000035763959 	1.036380083002461e-05 	101325.0042278003
0.5392892892892888 	300.0000035340947 	1.023752449411802e-05 	101325.0041778594
0.5417917917917912 	300.0000034889846 	1.010221098080138e-05 	101325.0041242252
0.5442942942942938 	300.0000034304032 	9.930906750516921e-06 	101325.0040549348
0.5467967967967964 	300.0000033527907 	9.706068216952569e-06 	101325.0039631413
0.5492992992992988 	300.0000032555176 	9.42442380580061e-06 	101325.0038480598
0.5518018018018012 	300.0000031424975 	9.100839859613493e-06 	101325.0037143626
0.5543043043043039 	300.0000030222017 	8.755306225586521e-06 	101325.003571853
0.5568068068068063 	300.0000029036122 	8.414962021609438e-06 	101325.0034317957
0.5593093093093087 	300.0000027948073 	8.102379016901517e-06 	101325.0033035626
0.5618118118118114 	300.0000027012866 	7.830632593594276e-06 	101325.0031929562
0.5643143143143137 	300.0000026233833 	7.604839709217607e-06 	101325.0031010327
0.5668168168168163 	300.0000025585293 	7.41549001168207e-06 	101325.0030242467
0.5693193193193188 	300.0000025017179 	7.248678579191664e-06 	101325.002956971
0.5718218218218213 	300.0000024465329 	7.085338156545707e-06 	101325.0028917345
0.5743243243243239 	300.0000023863407 	6.908439918078941e-06 	101325.0028205778
0.5768268268268262 	300.0000023161746 	6.705644257134336e-06 	101325.0027377297
0.5793293293293288 	300.0000022332717 	6.466151126668627e-06 	101325.0026399734
0.5818318318318314 	300.0000021374777 	6.190570769364755e-06 	101325.002526776
0.5843343343343338 	300.0000020312858 	5.883033713390274e-06 	101325.0024010495
0.5868368368368363 	300.0000019181913 	5.556189043203949e-06 	101325.0022674914
0.5893393393393387 	300.0000018031898 	5.227550638179314e-06 	101325.0021318309
0.5918418418418413 	300.0000016925994 	4.909069631587764e-06 	101325.00200113
0.5943443443443439 	300.0000015908327 	4.614322050770104e-06 	101325.0018806435
0.5968468468468463 	300.000001499572 	4.348941669302067e-06 	101325.0017727244
0.5993493493493487 	300.0000014189587 	4.113264450364182e-06 	101325.0016773158
0.6018518518518514 	300.0000013461922 	3.902422206563713e-06 	101325.0015914377
0.6043543543543537 	300.0000012773705 	3.702258587507681e-06 	101325.0015099245
0.6068568568568564 	300.0000012081164 	3.500163709022886e-06 	101325.0014280419
0.6093593593593587 	300.0000011338435 	3.283129236228838e-06 	101325.0013404413
0.6118618618618614 	300.0000010519133 	3.045613268311352e-06 	101325.0012435457
0.6143643643643638 	300.0000009623015 	2.787149021561456e-06 	101325.0011372673
0.6168668668668662 	300.0000008660987 	2.509327094731432e-06 	101325.0010236977
0.6193693693693688 	300.0000007663991 	2.222708522771354e-06 	101325.0009060356
0.6218718718718714 	300.0000006675489 	1.935768578331166e-06 	101325.0007892351
0.6243743743743737 	300.0000005721042 	1.660183588757582e-06 	101325.0006766204
0.6268768768768762 	300.0000004829473 	1.405682136544711e-06 	101325.0005713512
0.629379379379379 	300.0000004023577 	1.172039808515817e-06 	101325.000476015
0.6318818818818812 	300.0000003299903 	9.60948921236231e-07 	101325.0003903745
0.6343843843843838 	300.0000002635305 	7.668079096378508e-07 	101325.0003116158
0.6368868868868864 	300.0000002002316 	5.813624450939211e-07 	101325.0002368142
0.6393893893893888 	300.0000001359884 	3.96812090053081e-07 	101325.0001610142
0.6418918918918912 	300.000000068412 	1.991129829507913e-07 	101325.0000807363
0.6443943943943939 	299.9999999944641 	8.23006829822002e-08 	101324.9999933145
0.6468968968968963 	299.9999999085341 	2.725333513463877e-07 	101324.999891592
0.6493993993993988 	299.9999998059934 	5.695166929181194e-07 	101324.9997703459
0.6519019019019012 	299.9999996892024 	9.049551822486419e-07 	101324.9996322073
0.6544044044044038 	299.9999995658725 	1.257815670057624e-06 	101324.9994867514
0.6569069069069065 	299.9999994472157 	1.598416047771758e-06 	101324.9993463967
0.6594094094094087 	299.9999993424065 	1.899333419129924e-06 	101324.9992225046
0.6619119119119113 	299.9999992581094 	2.142041063764584e-06 	101324.9991229574
0.664414414414414 	299.9999991964541 	2.321678442681135e-06 	101324.999050043
0.6669169169169162 	299.9999991534203 	2.449443859964001e-06 	101324.998999309
0.6694194194194188 	299.9999991203919 	2.548749051456601e-06 	101324.9989605188
0.6719219219219214 	299.9999990863876 	2.650340880046917e-06 	101324.9989206621
0.674424424424424 	299.9999990416692 	2.782436229300645e-06 	101324.9988677121
0.6769269269269262 	299.9999989785887 	2.965410812000842e-06 	101324.998793387
0.679429429429429 	299.9999988955179 	3.206152054619082e-06 	101324.9986948899
0.6819319319319311 	299.999998794755 	3.495145646289879e-06 	101324.9985758442
0.6844344344344341 	299.9999986845795 	3.811261556283613e-06 	101324.9984455487
0.686936936936936 	299.9999985753461 	4.123524936540811e-06 	101324.9983163936
0.6894394394394392 	299.9999984774162 	4.404000549601161e-06 	101324.9982005781
0.6919419419419413 	299.9999983982906 	4.632265983469659e-06 	101324.9981070923
0.694444444444444 	299.9999983410135 	4.798037740777688e-06 	101324.9980396367
0.6969469469469463 	299.9999983040585 	4.908314769575604e-06 	101324.9979958857
0.6994494494494489 	299.9999982805123 	4.979921356905343e-06 	101324.9979679343
0.7019519519519515 	299.9999982606706 	5.041321310307665e-06 	101324.9979441976
0.7044544544544538 	299.9999982337086 	5.122961391039953e-06 	101324.9979123718
0.7069569569569564 	299.9999981914282 	5.248249643556282e-06 	101324.9978620861
0.7094594594594589 	299.9999981280109 	5.432842971661129e-06 	101324.9977872003
0.7119619619619615 	299.9999980437354 	5.67420210271453e-06 	101324.9976877352
0.7144644644644638 	299.9999979444939 	5.958137430567264e-06 	101324.9975702159
0.7169669669669665 	299.9999978395756 	6.257739946007039e-06 	101324.9974463096
0.7194694694694688 	299.9999977415453 	6.538305598141578e-06 	101324.9973301071
0.7219719719719715 	299.9999976605702 	6.770980986638542e-06 	101324.9972344281
0.7244744744744737 	299.9999976040354 	6.933650434668334e-06 	101324.9971675263
0.7269769769769764 	299.9999975730464 	7.024575589877037e-06 	101324.9971309038
0.7294794794794791 	299.9999975624744 	7.059463672714027e-06 	101324.9971184227
0.7319819819819813 	299.9999975619611 	7.065452668064838e-06 	101324.9971178672
0.7344844844844839 	299.9999975588291 	7.07925558643838e-06 	101324.9971143796
0.7369869869869864 	299.9999975420197 	7.130588132671652e-06 	101324.9970943542
0.739489489489489 	299.9999975035184 	7.242204954110865e-06 	101324.9970488135
0.7419919919919914 	299.999997441567 	7.420638055802733e-06 	101324.9969756225
0.7444944944944939 	299.999997360736 	7.651857682468911e-06 	101324.9968798721
0.7469969969969963 	299.999997269951 	7.911376772581549e-06 	101324.9967725715
0.7494994994994989 	299.9999971810308 	8.163744145383832e-06 	101324.9966676357
0.7520020020020015 	299.9999971055512 	8.378813345353833e-06 	101324.9965783013
0.7545045045045039 	299.9999970512396 	8.535400729272633e-06 	101324.9965141355
0.7570070070070062 	299.9999970215129 	8.621600477739002e-06 	101324.9964791087
0.7595095095095092 	299.9999970145207 	8.644445123625071e-06 	101324.9964708553
0.7620120120120112 	299.9999970236994 	8.621773083947523e-06 	101324.996481449
0.7645145145145138 	299.9999970387623 	8.581487339758381e-06 	101324.9964993279
0.7670170170170165 	299.999997049377 	8.554212367052871e-06 	101324.9965120792
0.7695195195195191 	299.9999970469012 	8.56321314910796e-06 	101324.9965091286
0.7720220220220213 	299.999997025495 	8.62588454507174e-06 	101324.9964837409
0.7745245245245239 	299.9999969836164 	8.745947773629549e-06 	101324.9964342675
0.7770270270270263 	299.9999969248468 	8.913989173787958e-06 	101324.9963646193
0.779529529529529 	299.9999968563378 	9.110252552847112e-06 	101324.9962835151
0.7820320320320313 	299.9999967878859 	9.303937482761579e-06 	101324.9962026565
0.784534534534534 	299.9999967301335 	9.46770420905812e-06 	101324.9961342315
0.7870370370370364 	299.9999966911403 	9.579087375862616e-06 	101324.9960881783
0.7895395395395389 	299.9999966756773 	9.623856613225324e-06 	101324.9960699691
0.7920420420420413 	299.9999966836091 	9.603540555417413e-06 	101324.9960793786
0.794544544544544 	299.9999967099453 	9.529583875992935e-06 	101324.9961105766
0.7970470470470463 	299.9999967463487 	9.42713547521882e-06 	101324.9961535239
0.799549549549549 	299.999996782517 	9.325907499527012e-06 	101324.9961963564
0.8020520520520515 	299.9999968090835 	9.251160584025766e-06 	101324.996227849
0.8045545545545539 	299.9999968188548 	9.223808091645865e-06 	101324.9962396017
0.8070570570570563 	299.999996808819 	9.252690017510981e-06 	101324.9962276328
0.8095595595595589 	299.9999967795993 	9.335095036652807e-06 	101324.9961931871
0.8120620620620614 	299.9999967366508 	9.456706978023506e-06 	101324.996142465
0.8145645645645638 	299.999996688311 	9.593964436682191e-06 	101324.9960850741
0.8170670670670666 	299.9999966430975 	9.722114570941607e-06 	101324.9960316114
0.8195695695695689 	299.9999966088239 	9.819365221115104e-06 	101324.9959911825
0.8220720720720714 	299.9999965906268 	9.870768154268348e-06 	101324.9959698343
0.8245745745745739 	299.9999965911096 	9.869760861125297e-06 	101324.9959702025
0.8270770770770765 	299.9999966094555 	9.816901766078522e-06 	101324.9959919161
0.8295795795795788 	299.9999966434665 	9.71951083689723e-06 	101324.9960321608
0.8320820820820815 	299.9999966893314 	9.589539868588691e-06 	101324.9960861277
0.834584584584584 	299.9999967412926 	9.441349266684159e-06 	101324.9961476166
0.8370870870870865 	299.9999967941055 	9.289828555592804e-06 	101324.9962102343
0.8395895895895891 	299.9999968436372 	9.146761153277651e-06 	101324.9962688928
0.8420920920920915 	299.9999968874795 	9.020068802193084e-06 	101324.9963206214
0.844594594594594 	299.999996924627 	8.912560803161557e-06 	101324.9963645421
0.8470970970970964 	299.9999969555425 	8.822862426259848e-06 	101324.9964010258
0.8495995995995991 	299.9999969807974 	8.749450386939304e-06 	101324.996430658
0.8521021021021015 	299.999997000356 	8.692058675217484e-06 	101324.9964538141
0.8546046046046039 	299.9999970145623 	8.650958287062143e-06 	101324.9964706569
0.8571071071071066 	299.9999970237704 	8.624705907032951e-06 	101324.9964814429
0.8596096096096089 	299.9999970288198 	8.608983320217094e-06 	101324.9964875716
0.8621121121121116 	299.9999970324076 	8.596990904252078e-06 	101324.996491961
0.8646146146146139 	299.999997037859 	8.580566907594388e-06 	101324.9964981893
0.8671171171171166 	299.9999970474763 	8.551940247225452e-06 	101324.9965096804
0.8696196196196189 	299.9999970636285 	8.50484343116483e-06 	101324.9965288974
0.8721221221221216 	299.9999970875793 	8.435266267921707e-06 	101324.9965569818
0.874624624624624 	299.9999971195056 	8.341970313108984e-06 	101324.9965946142
0.8771271271271264 	299.9999971595764 	8.226351735770158e-06 	101324.9966419384
0.879629629629629 	299.9999972067114 	8.091026137987253e-06 	101324.9966975982
0.8821321321321317 	299.9999972587341 	7.940916371660362e-06 	101324.9967592428
0.8846346346346339 	299.9999973133167 	7.783115386631712e-06 	101324.9968240391
0.8871371371371364 	299.9999973686664 	7.622828385972508e-06 	101324.9968894062
0.8896396396396391 	299.9999974238 	7.462975192034905e-06 	101324.9969545942
0.8921421421421414 	299.9999974794492 	7.301959280210663e-06 	101324.9970203757
0.8946446446446441 	299.999997536644 	7.135348088967089e-06 	101324.9970878902
0.8971471471471464 	299.9999975962972 	6.962418167555324e-06 	101324.9971583097
0.8996496496496489 	299.9999976581653 	6.783875897185763e-06 	101324.997231507
0.9021521521521517 	299.9999977208877 	6.602506245495157e-06 	101324.9973057012
0.9046546546546541 	299.999997783578 	6.42103882605572e-06 	101324.9973797093
0.9071571571571564 	299.9999978459142 	6.238870639373265e-06 	101324.9974535785
0.9096596596596589 	299.9999979092008 	6.054819157877993e-06 	101324.9975284256
0.9121621621621616 	299.9999979750913 	5.864809087209541e-06 	101324.9976060802
0.9146646646646639 	299.9999980435544 	5.667494048193116e-06 	101324.9976871274
0.9171671671671666 	299.9999981134584 	5.465074349184149e-06 	101324.9977698873
0.9196696696696689 	299.9999981836116 	5.261432860028365e-06 	101324.9978525872
0.9221721721721714 	299.9999982526504 	5.061985531880312e-06 	101324.9979341957
0.9246746746746741 	299.9999983205963 	4.8648431384445e-06 	101324.9980147351
0.9271771771771765 	299.999998389031 	4.666516683874127e-06 	101324.9980955761
0.9296796796796791 	299.999998459004 	4.463886931783761e-06 	101324.9981781839
0.9321821821821816 	299.9999985305939 	4.254516663302859e-06 	101324.998262958
0.9346846846846838 	299.9999986040976 	4.041352585553521e-06 	101324.9983499726
0.9371871871871866 	299.9999986792365 	3.825434962908097e-06 	101324.9984386267
0.9396896896896891 	299.9999987547026 	3.606836630455445e-06 	101324.9985279014
0.9421921921921914 	299.9999988313816 	3.383632193496302e-06 	101324.9986185981
0.9446946946946939 	299.9999989109479 	3.15223293843466e-06 	101324.9987127782
0.9471971971971965 	299.9999989943359 	2.910895095134407e-06 	101324.998811474
0.9496996996996991 	299.9999990811875 	2.660961497316139e-06 	101324.9989139438
0.9522022022022016 	299.9999991687445 	2.409875723605333e-06 	101324.9990172957
0.9547047047047038 	299.9999992537337 	2.163104158134197e-06 	101324.9991176929
0.9572072072072064 	299.9999993356602 	1.923691114145762e-06 	101324.9992145486
0.9597097097097093 	299.9999994163829 	1.68955082987594e-06 	101324.9993099282
0.9622122122122114 	299.9999994981304 	1.450990130523294e-06 	101324.9994065514
0.964714714714714 	299.9999995838593 	1.202154102813149e-06 	101324.9995079398
0.9672172172172167 	299.9999996754197 	9.38493340918703e-07 	101324.9996162123
0.969719719719719 	299.999999771053 	6.625333850754921e-07 	101324.99972919
0.9722222222222214 	299.9999998677352 	3.838900722387209e-07 	101324.999843534
0.9747247247247239 	299.9999999625674 	1.514715674852002e-07 	101324.999955682
0.9772272272272267 	300.0000000534062 	1.530794995254116e-07 	101325.0000629682
0.9797297297297292 	300.000000141233 	4.090830668363234e-07 	101325.0001668926
0.9822322322322313 	300.0000002305974 	6.696107893578811e-07 	101325.0002725408
0.9847347347347344 	300.0000003257123 	9.452129341182149e-07 	101325.0003849705
0.9872372372372363 	300.0000004265323 	1.236078632607706e-06 	101325.0005043096
0.9897397397397389 	300.0000005292205 	1.531174811403671e-06 	101325.0006256104
0.9922422422422417 	300.0000006278025 	1.815555392357757e-06 	101325.0007421781
0.9947447447447441 	300.0000007192791 	2.08092458771972e-06 	101325.0008502191
0.9972472472472468 	300.000000805228 	2.33215408621558e-06 	101325.0009518127
0.999749749749749 	300.0000008917573 	2.585539332984683e-06 	101325.0010541542
1.002252252252252 	300.000000985801 	2.859271336474293e-06 	101325.0011653261
1.004754754754754 	300.0000010906907 	3.162123321402411e-06 	101325.0012892785
1.007257257257256 	300.0000012037331 	3.487261741030295e-06 	101325.0014230594
1.009759759759759 	300.0000013179333 	3.815359972299654e-06 	101325.0015581606
1.012262262262261 	300.0000014254804 	4.125429908819094e-06 	101325.0016853202
1.014764764764764 	300.0000015222042 	4.406712276703405e-06 	101325.0017998016
1.017267267267267 	300.0000016103405 	4.664801397226189e-06 	101325.001904073
1.019769769769769 	300.0000016968847 	4.917998245185447e-06 	101325.0020062495
1.022272272272272 	300.000001789081 	5.186315380969934e-06 	101325.002115171
1.024774774774774 	300.0000018906746 	5.479723613935203e-06 	101325.002235219
1.027277277277277 	300.0000019995651 	5.792821153626215e-06 	101325.0023639586
1.029779779779779 	300.0000021096014 	6.108880154271297e-06 	101325.0024939347
1.032282282282282 	300.0000022141081 	6.410627336583209e-06 	101325.0026174785
1.034784784784784 	300.0000023105318 	6.691161257779676e-06 	101325.002731515
1.037287287287286 	300.0000024017694 	6.958257005639722e-06 	101325.0028394928
1.039789789789789 	300.0000024946261 	7.229554769346851e-06 	101325.0029492515
1.042292292292291 	300.0000025952562 	7.521419131786018e-06 	101325.0030680868
1.044794794794794 	300.000002705217 	7.838189243051221e-06 	101325.0031979996
1.047297297297296 	300.0000028202683 	8.168270475154871e-06 	101325.0033339496
1.049799799799799 	300.0000029320186 	8.489653923982688e-06 	101325.0034662746
1.052302302302302 	300.0000030331396 	8.782045794626277e-06 	101325.0035859984
1.054804804804804 	300.0000031211206 	9.038794653134454e-06 	101325.0036901079
1.057307307307306 	300.0000032004108 	9.272171232420247e-06 	101325.0037838761
1.059809809809809 	300.0000032807447 	9.508288363366593e-06 	101325.0038786975
1.062312312312312 	300.0000033718362 	9.774193457581038e-06 	101325.0039864104
1.064814814814814 	300.0000034789616 	1.00835706504982e-05 	101325.0041130727
1.067317317317317 	300.0000035992621 	1.042862819806677e-05 	101325.0042553741
1.069819819819819 	300.0000037230312 	1.078255413085401e-05 	101325.0044016875
1.072322322322321 	300.0000038380555 	1.111178795277574e-05 	101325.0045374205
1.074824824824824 	300.0000039350529 	1.139211621308292e-05 	101325.0046519998
1.077327327327327 	300.0000040130771 	1.162072102190764e-05 	101325.0047441443
1.079829829829829 	300.0000040796996 	1.181838947091596e-05 	101325.0048228449
1.082332332332332 	300.0000041476544 	1.202019950073273e-05 	101325.0049033382
1.084834834834834 	300.000004229316 	1.225924396676426e-05 	101325.0049999934
1.087337337337337 	300.0000043303577 	1.255103392039477e-05 	101325.0051195731
1.089839839839839 	300.0000044473554 	1.288597368318272e-05 	101325.0052579427
1.092342342342342 	300.0000045691812 	1.323346184672422e-05 	101325.0054018268
1.094844844844844 	300.0000046817098 	1.355571823674891e-05 	101325.005534857
1.097347347347347 	300.00000477481 	1.382506638673147e-05 	101325.0056450178
1.099849849849849 	300.0000048468038 	1.403664551889328e-05 	101325.0057301657
1.102352352352352 	300.0000049052944 	1.421107380958177e-05 	101325.0057991898
1.104854854854854 	300.0000049637021 	1.438540551230932e-05 	101325.0058681351
1.107357357357357 	300.0000050354783 	1.45967499063935e-05 	101325.0059530439
1.109859859859859 	300.0000051282859 	1.486556509736231e-05 	101325.0060627916
1.112362362362362 	300.0000052402917 	1.518617061374665e-05 	101325.0061949514
1.114864864864865 	300.0000053600168 	1.552836055000276e-05 	101325.0063364901
1.117367367367367 	300.0000054720156 	1.584973501633579e-05 	101325.0064690931
1.119869869869869 	300.0000055629728 	1.611334148497323e-05 	101325.0065767611
1.122372372372372 	300.000005627207 	1.630337164431272e-05 	101325.0066525541
1.124874874874874 	300.0000056688821 	1.64326854386228e-05 	101325.0067018421
1.127377377377377 	300.0000057016682 	1.653869317216265e-05 	101325.0067405764
1.129879879879879 	300.000005742919 	1.66691685890685e-05 	101325.0067891375
1.132382382382382 	300.0000058066044 	1.686363103752409e-05 	101325.0068643432
1.134884884884884 	300.000005898204 	1.713765195109283e-05 	101325.00697273
1.137387387387387 	300.0000060122561 	1.747591276344006e-05 	101325.0071075392
1.139889889889889 	300.0000061331747 	1.783692915896256e-05 	101325.007250706
1.142392392392392 	300.0000062418181 	1.81677862179414e-05 	101325.0073791911
1.144894894894894 	300.0000063215219 	1.842327685728631e-05 	101325.0074731543
1.147397397397397 	300.0000063637153 	1.858283731451529e-05 	101325.0075231139
1.149899899899899 	300.0000063725032 	1.865930906881255e-05 	101325.0075337455
1.152402402402402 	300.0000063631898 	1.869633683826264e-05 	101325.0075227852
1.154904904904904 	300.0000063568832 	1.875477579424722e-05 	101325.0075151874
1.157407407407407 	300.0000063734192 	1.88931108878289e-05 	101325.0075347329
1.159909909909909 	300.000006425145 	1.914844599910173e-05 	101325.0075960039
1.162412412412412 	300.0000065122971 	1.952403054679224e-05 	101325.0076990557
1.164914914914914 	300.0000066219114 	1.99872599800025e-05 	101325.007828506
1.167417417417417 	300.0000067311291 	2.047912013115337e-05 	101325.0079575899
1.169919919919919 	300.000006814394 	2.093210999757408e-05 	101325.0080558253
1.172422422422422 	300.000006849895 	2.129060919912478e-05 	101325.0080976661
1.174924924924925 	300.000006826123 	2.152811391562365e-05 	101325.0080697747
1.177427427427427 	300.0000067459497 	2.165661624267124e-05 	101325.0079751198
1.179929929929929 	300.0000066254966 	2.172519791534967e-05 	101325.0078325164
1.182432432432432 	300.0000064892818 	2.180754536421357e-05 	101325.007671372
1.184934934934934 	300.0000063640018 	2.198236571906513e-05 	101325.0075234328
1.187437437437437 	300.0000062715607 	2.231289957249838e-05 	101325.0074142996
1.189939939939939 	300.0000062227822 	2.283044986133601e-05 	101325.0073566705
1.192442442442442 	300.0000062143064 	2.35257645819182e-05 	101325.0073467422
1.194944944944944 	300.0000062296573 	2.43504575364534e-05 	101325.007364858
1.197447447447447 	300.0000062430021 	2.52284294729185e-05 	101325.007380401
1.199949949949949 	300.0000062254247 	2.607390705901613e-05 	101325.0073595322
1.202452452452452 	300.0000061523971 	2.681108905161607e-05 	101325.0072734238
1.204954954954955 	300.000006010009 	2.739085849782214e-05 	101325.0071051381
1.207457457457457 	300.000005797775 	2.780156609284704e-05 	101325.0068541241
1.20995995995996 	300.00000552969 	2.807147001673997e-05 	101325.0065372099
1.212462462462462 	300.0000052321149 	2.826144794388209e-05 	101325.0061853893
1.214964964964964 	300.0000049376232 	2.845023400119824e-05 	101325.0058372534
1.217467467467467 	300.0000046787244 	2.871658392207573e-05 	101325.0055311647
1.219969969969969 	300.0000044813946 	2.912261226151119e-05 	101325.0052979834
1.222472472472472 	300.0000043609195 	2.97007903109984e-05 	101325.0051553882
1.224974974974975 	300.0000043181004 	3.044668286603438e-05 	101325.0051046024
1.227477477477477 	300.0000043394686 	3.131876358401901e-05 	101325.0051300725
1.229979979979979 	300.0000044006734 	3.224591991215918e-05 	101325.0052024761
1.232482482482482 	300.0000044700752 	3.314118156259532e-05 	101325.0052846213
1.234984984984984 	300.0000045154698 	3.391756041124471e-05 	101325.0053382844
1.237487487487487 	300.0000045088416 	3.450259113640293e-05 	101325.0053303438
1.239989989989989 	300.0000044305813 	3.485002934918911e-05 	101325.0052378164
1.242492492492492 	300.0000042730603 	3.494760032638568e-05 	101325.0050514728
1.244994994994994 	300.000004040942 	3.479973120638099e-05 	101325.0047773117
1.247497497497497 	300.0000034956007 	3.452679043188902e-05 	101325.0044357718
1.249999999999999 	299.9996002393023 	3.394131728195648e-05 	101325.0040537026
