-1.25 	300 	0.1034853052098326 	101282.7836037249
-1.247497497497497 	299.9634622367187 	0.1025793056574884 	101283.147685431
-1.244994994994995 	299.9648939580044 	0.1015396184285923 	101283.5229234909
-1.242492492492492 	299.9652344414311 	0.1007884266979142 	101283.9057386812
-1.23998998998999 	299.9655644515913 	0.09973208230429723 	101284.296569371
-1.237487487487487 	299.9659012670601 	0.09879538218320812 	101284.6946703827
-1.234984984984985 	299.9662440510789 	0.09780029596200887 	101285.0998030618
-1.232482482482482 	299.9665933202593 	0.09678498751698639 	101285.5126004437
-1.22997997997998 	299.9669487405533 	0.095753997204438 	101285.932669073
-1.227477477477477 	299.9673103653455 	0.09470864808689436 	101286.3600721161
-1.224974974974975 	299.9676780986675 	0.09364546771392439 	101286.7946959027
-1.222472472472472 	299.9680513595117 	0.0925629366989245 	101287.235853762
-1.21996996996997 	299.9684306047891 	0.09146000131346066 	101287.6840854699
-1.217467467467467 	299.9688160064025 	0.09034073806200567 	101288.1395940948
-1.214964964964965 	299.9692070235796 	0.08921320499894382 	101288.601742136
-1.212462462462462 	299.9696034049666 	0.0880677034122504 	101289.0702316862
-1.20995995995996 	299.9700053895776 	0.08690252913883394 	101289.5453448831
-1.207457457457457 	299.970413001119 	0.08571771830634169 	101290.0271098976
-1.204954954954955 	299.9708262735418 	0.08451703364889779 	101290.5155669494
-1.202452452452452 	299.9712452266231 	0.08330814975714472 	101291.010740401
-1.19994994994995 	299.971668969472 	0.08208234372764733 	101291.5115762333
-1.197447447447447 	299.9720977825506 	0.08083860030420741 	101292.0184058776
-1.194944944944945 	299.9725321429389 	0.07957724147138452 	101292.5317933559
-1.192442442442442 	299.9729713309471 	0.07830250184774123 	101293.0508885011
-1.18993993993994 	299.9734153767696 	0.07702078637427062 	101293.5757282812
-1.187437437437437 	299.9738642547181 	0.07572322455979937 	101294.1062813407
-1.184934934934935 	299.9743177360423 	0.07440880096570916 	101294.6422770172
-1.182432432432432 	299.9747765197994 	0.07307874330672681 	101295.1845413187
-1.17992992992993 	299.9752403378423 	0.07173482652066573 	101295.7327574189
-1.177427427427427 	299.9757080563029 	0.07038011227142384 	101296.2855869357
-1.174924924924925 	299.9761801710964 	0.06901092130495337 	101296.8436149245
-1.172422422422422 	299.9766570625378 	0.06762919772918838 	101297.4072890106
-1.16991991991992 	299.9771379804539 	0.06623602154168966 	101297.9757232521
-1.167417417417417 	299.9776231676547 	0.06483103858481823 	101298.5492072183
-1.164914914914915 	299.9781127127866 	0.06341478721704411 	101299.1278473864
-1.162412412412412 	299.9786054100572 	0.06198688946916128 	101299.7102168218
-1.15990990990991 	299.9791020835504 	0.06054845468396659 	101300.2972862978
-1.157407407407407 	299.9796041233874 	0.05909660144969159 	101300.8906965423
-1.154904904904904 	299.9801095425538 	0.05763230512427644 	101301.4881009766
-1.152402402402403 	299.9806169555795 	0.05615830026799792 	101302.0878679309
-1.1498998998999 	299.9811284374529 	0.05467301895258569 	101302.6924532771
-1.147397397397397 	299.9816448879441 	0.05317771927590435 	101303.3029176189
-1.144894894894895 	299.9821644270518 	0.05167531807575293 	101303.9170334322
-1.142392392392392 	299.9826856730049 	0.05016670463690116 	101304.5331651293
-1.13988988988989 	299.9832098296097 	0.04864564801212162 	101305.1527340407
-1.137387387387387 	299.9837390181124 	0.04711187779133963 	101305.7782459643
-1.134884884884885 	299.984272045295 	0.04557308846813944 	101306.4082941837
-1.132382382382382 	299.9848059353796 	0.04402791014312971 	101307.0393659568
-1.12987987987988 	299.9853414559125 	0.04247366324032876 	101307.6723705234
-1.127377377377377 	299.985880668304 	0.04090730461790348 	101308.3097447431
-1.124874874874875 	299.9864232454178 	0.03933108845346169 	101308.9511011759
-1.122372372372372 	299.9869694372682 	0.03775216780558177 	101309.5967347196
-1.11986986986987 	299.9875182994358 	0.03616711558218051 	101310.2455297295
-1.117367367367367 	299.9880674203142 	0.0345751956368853 	101310.8946343459
-1.114864864864865 	299.9886171176798 	0.03297744539872179 	101311.5444232505
-1.112362362362362 	299.989168889092 	0.03137813560414992 	101312.1966679978
-1.10985985985986 	299.9897234063015 	0.02977616848532016 	101312.8521643254
-1.107357357357357 	299.9902829168847 	0.02815815972547749 	101313.513566366
-1.104854854854855 	299.9908467856411 	0.02652460329369609 	101314.1801221235
-1.102352352352353 	299.9914114037082 	0.0248832562783041 	101314.8475637149
-1.09984984984985 	299.9919739096932 	0.02325103831620645 	101315.5125092161
-1.097347347347347 	299.9925333194996 	0.02163617030702803 	101316.1737995734
-1.094844844844845 	299.9930908878625 	0.02002024854648753 	101316.8329197935
-1.092342342342342 	299.9936526353765 	0.01839064625724184 	101317.4969852882
-1.08983983983984 	299.9942220998757 	0.0167395106448178 	101318.1701772456
-1.087337337337337 	299.9947981277909 	0.01507096863089478 	101318.8511290846
-1.084834834834835 	299.9953767681188 	0.01339993344099424 	101319.5351694823
-1.082332332332332 	299.9959537205692 	0.01173121557567306 	101320.2172159946
-1.07982982982983 	299.9965261546222 	0.01007079583498329 	101320.8939233382
-1.077327327327327 	299.9970946190398 	0.008422410827417006 	101321.5659407807
-1.074824824824825 	299.9976594787618 	0.006785646517024711 	101322.233701392
-1.072322322322323 	299.9982223119686 	0.005154520143921835 	101322.8990718815
-1.06981981981982 	299.9987871171194 	0.003517086673858152 	101323.5667786903
-1.067317317317317 	299.9993572357205 	0.001865748622507463 	101324.2407715427
-1.064814814814815 	299.9999330797379 	0.00078719842614891 	101324.9215346467
-1.062312312312312 	300.0005112201676 	0.001473463694836932 	101325.6050131756
-1.05980980980981 	300.0010886113847 	0.003145711855017058 	101326.2876082762
-1.057307307307307 	300.0016645933131 	0.004814277665185301 	101326.9685404846
-1.054804804804805 	300.0022393304066 	0.006479285827594656 	101327.6480043261
-1.052302302302302 	300.0028130247575 	0.008141266358044271 	101328.3262387337
-1.0497997997998 	300.0033858046904 	0.009800581506876705 	101329.0033954971
-1.047297297297297 	300.0039577207198 	0.01145737940884427 	101329.6795340238
-1.044794794794795 	300.0045287641132 	0.0131116395045373 	101330.3546438188
-1.042292292292292 	300.0050988863661 	0.01476322572629501 	101331.0286679325
-1.03978978978979 	300.0056680150796 	0.0164119311526295 	101331.7015208562
-1.037287287287287 	300.0062360644307 	0.01805750755828059 	101332.3731005213
-1.034784784784785 	300.0068029405667 	0.01969968261785233 	101333.0432956805
-1.032282282282283 	300.007368544545 	0.02133817214232049 	101333.7119901538
-1.02977977977978 	300.0079327755352 	0.02297268583689349 	101334.3790652214
-1.027277277277277 	300.0084955330814 	0.02460292911246681 	101335.0444009097
-1.024774774774775 	300.0090567158662 	0.02622860667192763 	101335.707876696
-1.022272272272272 	300.0096162206922 	0.02784942341960841 	101336.3693718899
-1.01976976976977 	300.0101739443808 	0.02946508308861849 	101337.0287657968
-1.017267267267267 	300.0107297862551 	0.03107529017442539 	101337.6859378867
-1.014764764764765 	300.0112836466519 	0.03267975058936202 	101338.340767904
-1.012262262262262 	300.0118354230344 	0.03427817017152308 	101338.9931359419
-1.00975975975976 	300.0123850113669 	0.03587025613974127 	101339.6429225109
-1.007257257257257 	300.0129323109737 	0.0374557171824059 	101340.2900084975
-1.004754754754755 	300.0134772254073 	0.03903426213500451 	101340.93427521
-1.002252252252252 	300.0140196570445 	0.04060560136106678 	101341.5756044595
-0.9997497497497498 	300.0145595026445 	0.04216944708023617 	101342.2138785581
-0.9972472472472473 	300.0150966578688 	0.04372551218788342 	101342.8489804184
-0.9947447447447449 	300.0156310250919 	0.0452735113556374 	101343.4807935621
-0.9922422422422421 	300.0161625136653 	0.04681316102869603 	101344.1092020674
-0.9897397397397399 	300.0166910307873 	0.04834417833557127 	101344.7340906185
-0.9872372372372376 	300.0172164743475 	0.04986628245941215 	101345.3553444918
-0.9847347347347346 	300.0177387383217 	0.05137919449353671 	101345.9728496341
-0.9822322322322323 	300.0182577239968 	0.05288263642927679 	101346.5864927484
-0.9797297297297296 	300.0187733445922 	0.05437633256373814 	101347.1961612132
-0.9772272272272275 	300.019285517008 	0.05586000948339249 	101347.8017431588
-0.9747247247247248 	300.0197941490413 	0.05733339459155544 	101348.4031274871
-0.9722222222222224 	300.0202991367397 	0.05879621749673759 	101349.0002037904
-0.9697197197197196 	300.020800374399 	0.06024821046955486 	101349.5928625117
-0.9672172172172175 	300.0212977673675 	0.06168910699495371 	101350.1809949396
-0.9647147147147147 	300.0217912352549 	0.06311864271226351 	101350.7644931437
-0.9622122122122124 	300.0222807027462 	0.06453655585466628 	101351.3432501284
-0.9597097097097099 	300.0227660865737 	0.06594258630471114 	101351.9171597115
-0.9572072072072073 	300.0232472895057 	0.06733647611915164 	101352.4861164747
-0.9547047047047047 	300.0237242074001 	0.0687179695709503 	101353.0500159585
-0.9522022022022023 	300.0241967407275 	0.0700868127793762 	101353.6087545665
-0.9496996996996998 	300.0246648035224 	0.07144275475469515 	101354.1622296568
-0.9471971971971973 	300.0251283226141 	0.0727855468103558 	101354.7103396705
-0.9446946946946947 	300.0255872285593 	0.07411494186052103 	101355.2529838342
-0.9421921921921923 	300.0260414463241 	0.07543069616126782 	101355.790062352
-0.93968968968969 	300.0264908897922 	0.0767325687425981 	101356.3214767383
-0.9371871871871872 	300.0269354641428 	0.078020320439923 	101356.8471295064
-0.9346846846846848 	300.027375073479 	0.07929371525731013 	101357.3669241906
-0.9321821821821823 	300.0278096275871 	0.08055251995904815 	101357.8807654624
-0.9296796796796799 	300.0282390454523 	0.08179650332657472 	101358.3885588797
-0.9271771771771771 	300.0286632549328 	0.08302543740340759 	101358.8902112404
-0.9246746746746748 	300.0290821899344 	0.08423909729705081 	101359.3856307731
-0.9221721721721724 	300.0294957858095 	0.08543726036329283 	101359.8747265695
-0.9196696696696698 	300.0299039747675 	0.0866197071263872 	101360.3574088068
-0.9171671671671672 	300.0303066845717 	0.08778622092532355 	101360.8335890676
-0.9146646646646649 	300.0307038384493 	0.08893658769767485 	101361.3031798421
-0.9121621621621623 	300.0310953575942 	0.09007059670151302 	101361.7660948317
-0.9096596596596597 	300.0314811643362 	0.09118804016167463 	101362.222249381
-0.9071571571571573 	300.0318611825816 	0.0922887133267653 	101362.6715598234
-0.9046546546546547 	300.0322353385884 	0.09337241459158545 	101363.113943565
-0.9021521521521524 	300.0326035613779 	0.09443894504060216 	101363.5493195674
-0.8996496496496498 	300.0329657823605 	0.09548810868083071 	101363.9776077231
-0.8971471471471473 	300.0333219348529 	0.09651971288614886 	101364.3987290513
-0.894644644644645 	300.0336719542914 	0.09753356872082965 	101364.8126066075
-0.892142142142142 	300.0340157778588 	0.09852949091241806 	101365.2191647479
-0.8896396396396397 	300.0343533432922 	0.0995072968393787 	101365.6183285989
-0.8871371371371374 	300.0346845895975 	0.1004668068084737 	101366.0100249089
-0.8846346346346349 	300.0350094570607 	0.1014078447090064 	101366.3941817614
-0.8821321321321324 	300.0353278861861 	0.1023302371508287 	101366.7707280674
-0.8796296296296297 	300.0356398190987 	0.1032338145467363 	101367.1395946236
-0.8771271271271271 	300.0359451992666 	0.1041184119503986 	101367.5007141537
-0.8746246246246248 	300.0362439708468 	0.104983867063378 	101367.8540201507
-0.8721221221221224 	300.0365360789801 	0.1058300205494389 	101368.1994474968
-0.8696196196196196 	300.0368214705201 	0.1066567180712866 	101368.536933253
-0.8671171171171175 	300.0371000934538 	0.1074638081481742 	101368.8664155426
-0.8646146146146148 	300.0373718960154 	0.1082511416655148 	101369.1878332659
-0.8621121121121121 	300.0376368283784 	0.1090185737936679 	101369.5011272231
-0.8596096096096097 	300.037894841924 	0.1097659631300827 	101369.8062398171
-0.857107107107107 	300.0381458884797 	0.1104931712631152 	101370.1031143073
-0.8546046046046049 	300.0383899219369 	0.1112000642182859 	101370.3916957754
-0.8521021021021022 	300.0386268978945 	0.1118865130403258 	101370.6719318252
-0.8495995995995997 	300.0388567732475 	0.1125523928832779 	101370.943771463
-0.8470970970970974 	300.0390795055303 	0.1131975811983747 	101371.2071643359
-0.8445945945945946 	300.0392950535536 	0.1138219586055813 	101371.4620617213
-0.8420920920920922 	300.039503378247 	0.1144254111722052 	101371.7084172037
-0.8395895895895897 	300.0397044410424 	0.1150078280915664 	101371.9461854471
-0.8370870870870872 	300.0398982042929 	0.1155691003506167 	101372.1753217292
-0.8345845845845846 	300.0400846325896 	0.1161091254810734 	101372.3957840876
-0.8320820820820823 	300.0402636927912 	0.1166278068240342 	101372.6075334479
-0.8295795795795798 	300.0404353515435 	0.1171250470449265 	101372.8105300904
-0.8270770770770772 	300.0405995750876 	0.1176007506291131 	101373.0047342091
-0.8245745745745746 	300.0407563339546 	0.1180548316366243 	101373.1901109007
-0.8220720720720721 	300.0409056010812 	0.1184872092527185 	101373.3666280904
-0.8195695695695699 	300.0410473466408 	0.1188977990184809 	101373.5342505083
-0.817067067067067 	300.0411815423358 	0.1192865214711243 	101373.6929446557
-0.8145645645645651 	300.0413081670794 	0.1196533124383929 	101373.8426856134
-0.8120620620620621 	300.041427199657 	0.1199981075771314 	101373.983448095
-0.8095595595595597 	300.0415386124034 	0.1203208318410445 	101374.1151995056
-0.8070570570570572 	300.0416423830708 	0.1206214235658894 	101374.237913625
-0.8045545545545546 	300.0417385001434 	0.1208998419380789 	101374.3515765459
-0.8020520520520523 	300.0418269457874 	0.1211560336709074 	101374.4561672843
-0.7995495495495494 	300.0419076932034 	0.1213899306497718 	101374.5516540862
-0.7970470470470474 	300.0419807283778 	0.1216014931497922 	101374.6380204479
-0.7945445445445446 	300.0420460505079 	0.1217907064693679 	101374.7152653912
-0.7920420420420423 	300.0421036437048 	0.121957525822435 	101374.783370012
-0.7895395395395397 	300.0421534807201 	0.1221018881122911 	101374.8423022105
-0.7870370370370371 	300.0421955591405 	0.1222237824496406 	101374.892059033
-0.7845345345345348 	300.0422298920358 	0.122323227598827 	101374.9326559434
-0.7820320320320323 	300.0422564632605 	0.1224001821895949 	101374.9640738455
-0.7795295295295296 	300.0422752418485 	0.1224545798901708 	101374.9862761429
-0.7770270270270272 	300.0422862373586 	0.1224864402166651 	101374.9992741336
-0.7745245245245247 	300.0422894802031 	0.1224958198108727 	101375.003103185
-0.7720220220220222 	300.0422849506136 	0.1224826733996698 	101374.997740499
-0.7695195195195199 	300.0422726054157 	0.1224469171448906 	101374.9831360373
-0.767017017017017 	300.0422524686241 	0.1223886056137806 	101374.95931691
-0.7645145145145147 	300.0422245977509 	0.1223078605721801 	101374.9263511096
-0.7620120120120122 	300.042188976655 	0.1222046466594947 	101374.8842198089
-0.7595095095095097 	300.0421455430816 	0.1220788393756134 	101374.8328494508
-0.7570070070070072 	300.0420943231673 	0.1219305070455875 	101374.7722710118
-0.7545045045045048 	300.0420354139678 	0.1217598594814914 	101374.7025992269
-0.7520020020020022 	300.0419688161298 	0.1215668948879774 	101374.6238348567
-0.7494994994994997 	300.0418944305397 	0.1213514106794811 	101374.5358604196
-0.7469969969969972 	300.0418122608355 	0.1211134383967549 	101374.4386805546
-0.7444944944944945 	300.0417224565903 	0.1208533139957274 	101374.332472404
-0.7419919919919924 	300.0416250758474 	0.1205711589769431 	101374.217304459
-0.7394894894894897 	300.041519979749 	0.1202666766822093 	101374.0930123539
-0.7369869869869872 	300.0414070944145 	0.1199397358818391 	101373.9595085575
-0.7344844844844846 	300.0412866062287 	0.1195907734702841 	101373.8170137573
-0.7319819819819822 	300.0411587018026 	0.1192202005134494 	101373.6657486494
-0.7294794794794797 	300.0410232532079 	0.1188277324787427 	101373.5055622569
-0.7269769769769773 	300.0408800308271 	0.1184128898987307 	101373.3361829954
-0.7244744744744747 	300.0407291527399 	0.117975980962375 	101373.1577504787
-0.721971971971972 	300.0405709927914 	0.1175178542204013 	101372.9707064752
-0.7194694694694695 	300.0404056072057 	0.1170386178596241 	101372.7751172018
-0.7169669669669674 	300.0402326148508 	0.1165374225030478 	101372.5705324989
-0.7144644644644647 	300.0400518313917 	0.1160139081402228 	101372.3567349773
-0.711961961961962 	300.0398636898914 	0.115469104719933 	101372.1342370393
-0.7094594594594597 	300.0396686812339 	0.114904117952654 	101371.903618518
-0.7069569569569573 	300.0394665861687 	0.1143184185611911 	101371.6646192041
-0.7044544544544545 	300.0392567543377 	0.1137105499064583 	101371.4164701415
-0.7019519519519523 	300.0390391566877 	0.1130805352764247 	101371.1591381617
-0.6994494494494495 	300.0388146234767 	0.112430342338066 	101370.8936058962
-0.6969469469469471 	300.0385837388844 	0.1117612897206069 	101370.6205637155
-0.6944444444444446 	300.0383459225649 	0.1110719870265102 	101370.3393245313
-0.6919419419419421 	300.0381001758459 	0.1103601541173331 	101370.0487070252
-0.6894394394394396 	300.0378466153332 	0.1096261785405818 	101369.748849846
-0.6869369369369374 	300.0375865819766 	0.1088732612066175 	101369.4413387524
-0.6844344344344344 	300.0373209271121 	0.1081033468644965 	101369.127180241
-0.6819319319319321 	300.0370487277929 	0.10731418694892 	101368.8052828292
-0.6794294294294296 	300.0367683739093 	0.106502021723681 	101368.4737432814
-0.6769269269269272 	300.0364798268392 	0.1056669181941192 	101368.1325172563
-0.6744244244244245 	300.0361850282226 	0.104813605110918 	101367.7839006692
-0.6719219219219222 	300.0358856188395 	0.1039459443171586 	101367.4298320817
-0.6694194194194195 	300.0355807143017 	0.103061685366398 	101367.0692635938
-0.6669169169169172 	300.0352677434515 	0.1021546375969912 	101366.6991551071
-0.6644144144144146 	300.0349456496031 	0.101222421873557 	101366.31825971
-0.661911911911912 	300.0346165862853 	0.1002704360229889 	101365.9291261274
-0.6594094094094097 	300.0342837402845 	0.09930642868196943 	101365.5355225749
-0.656906906906907 	300.0339475548502 	0.09833132291435054 	101365.1379710331
-0.6544044044044046 	300.0336048453436 	0.09733721984220772 	101364.7327040553
-0.6519019019019021 	300.0332522130282 	0.0963158854063218 	101364.3157037887
-0.6493993993993996 	300.0328901468855 	0.09526876742110466 	101363.8875508429
-0.6468968968968971 	300.0325230631829 	0.09420691511482811 	101363.4534680671
-0.6443943943943946 	300.0321548228379 	0.09313980001455567 	101363.0180184154
-0.6418918918918921 	300.031784371977 	0.09206459205279915 	101362.5799521456
-0.6393893893893897 	300.031406367984 	0.09096789543598847 	101362.1329511703
-0.6368868868868871 	300.0310165469409 	0.08983922355769922 	101361.6719769616
-0.6343843843843846 	300.0306164817247 	0.0886828054199018 	101361.1988939683
-0.6318818818818821 	300.0302126729061 	0.08751512932085853 	101360.7213906742
-0.6293793793793795 	300.0298104780648 	0.08634959078784935 	101360.2457991073
-0.6268768768768773 	300.0294086637832 	0.08518283008303855 	101359.7706551259
-0.6243743743743745 	300.0289999525551 	0.08399646115331494 	101359.2874391014
-0.6218718718718721 	300.028577759726 	0.08277355952362979 	101358.7882194854
-0.6193693693693696 	300.0281423973351 	0.08151512813114492 	101358.2733285535
-0.6168668668668671 	300.027701444612 	0.0802411005508443 	101357.7518911567
-0.6143643643643645 	300.0272637612399 	0.07897409435215964 	101357.2343509935
-0.6118618618618621 	300.0268315998973 	0.0777196313688997 	101356.7233399091
-0.6093593593593596 	300.0263981901786 	0.07646005599827368 	101356.2108480107
-0.6068568568568571 	300.0259529329688 	0.07516796976036635 	101355.6843435218
-0.6043543543543546 	300.0254900525403 	0.07382862610341932 	101355.1370027821
-0.6018518518518521 	300.025013732571 	0.07245317107952751 	101354.5737788452
-0.5993493493493496 	300.0245354926457 	0.0710717439726776 	101354.0082946776
-0.5968468468468471 	300.0240656862268 	0.06971131143061356 	101353.4527880601
-0.5943443443443446 	300.0236055830911 	0.06837500627118108 	101352.9087531616
-0.591841841841842 	300.0231459964064 	0.06703854824964087 	101352.3653225012
-0.5893393393393397 	300.0226734880531 	0.06566656684773663 	101351.8066076263
-0.5868368368368371 	300.0221797632001 	0.06423735506473612 	101351.2228072152
-0.5843343343343346 	300.0216677380653 	0.06275885928414321 	101350.6173773377
-0.5818318318318321 	300.0211501293567 	0.06126492555219872 	101350.0053580286
-0.5793293293293297 	300.0206415040712 	0.05979425289261403 	101349.4039705644
-0.5768268268268271 	300.0201490339121 	0.0583658425057403 	101348.821686983
-0.5743243243243245 	300.019667837994 	0.05696653373634824 	101348.2527285417
-0.5718218218218221 	300.0191836436178 	0.05555803976876193 	101347.6802162667
-0.5693193193193196 	300.0186809762557 	0.05409887350698796 	101347.0858565038
-0.5668168168168171 	300.0181520446934 	0.05256822840960756 	101346.4604452019
-0.5643143143143147 	300.0176013542324 	0.05097840689159809 	101345.8093174354
-0.5618118118118121 	300.0170436164789 	0.04936922665198545 	101345.1498718267
-0.5593093093093094 	300.0164962482394 	0.04778784134583119 	101344.502699564
-0.5568068068068072 	300.0159705808668 	0.04626497676536912 	101343.881191215
-0.5543043043043046 	300.0154662819378 	0.04479969781270345 	101343.2849450308
-0.551801801801802 	300.0149714767592 	0.04335957869450199 	101342.6999150211
-0.5492992992992995 	300.0144681112952 	0.04189523307952132 	101342.1047539954
-0.5467967967967969 	300.0139398392891 	0.04036190318995436 	101341.4801399246
-0.5442942942942947 	300.0133789797726 	0.03873859290487505 	101340.816999461
-0.5417917917917919 	300.0127897798231 	0.03703707906579902 	101340.1203624061
-0.5392892892892895 	300.0121868727952 	0.03529773062831447 	101339.4075353296
-0.536786786786787 	300.0115897865288 	0.03357448168563106 	101338.7016066182
-0.5342842842842846 	300.0110158702201 	0.03191539552844996 	101338.0230840654
-0.531781781781782 	300.0104744020069 	0.03034628334419269 	101337.3829297274
-0.5292792792792794 	300.0099637422193 	0.02886265256179424 	101336.7791970346
-0.526776776776777 	300.0094720761253 	0.0274315991145089 	101336.1979115689
-0.5242742742742745 	300.0089810581156 	0.02600179349148469 	101335.6173809258
-0.521771771771772 	300.0084708556167 	0.02451757200742642 	101335.0141588012
-0.5192692692692695 	300.0079251075442 	0.02293292402869487 	101334.3689065528
-0.516766766766767 	300.0073346831064 	0.02122215121681039 	101333.6708353892
-0.5142642642642645 	300.0066995888377 	0.01938530892522708 	101332.9199605103
-0.511761761761762 	300.0060288484173 	0.01744790624893787 	101332.1269564106
-0.5092592592592596 	300.0053385949834 	0.01545555960787445 	101331.3109007369
-0.506756756756757 	300.0046489547338 	0.01346525215072692 	101330.4955892059
-0.5042542542542544 	300.0039805186071 	0.01153552245600975 	101329.7053638293
-0.5017517517517521 	300.0033513710766 	0.009718166364944195 	101328.9616016655
-0.4992492492492494 	300.0027753594642 	0.008053113326156264 	101328.2806693089
-0.496746746746747 	300.0022614606573 	0.006566434959753908 	101327.6731750803
-0.4942442442442445 	300.0018139117077 	0.005270624262045529 	101327.1441240168
-0.4917417417417421 	300.0014328378591 	0.004166337868887014 	101326.6936607477
-0.4892392392392395 	300.0011151466013 	0.003244926659911486 	101326.31812677
-0.486736736736737 	300.0008554987241 	0.002491208312131289 	101326.0112083366
-0.4842342342342345 	300.0006472208903 	0.001886088228762654 	101325.7650152497
-0.481731731731732 	300.0004830784815 	0.001408788917472987 	101325.5709940756
-0.4792292292292296 	300.0003558708528 	0.001038577470968431 	101325.4206326009
-0.4767267267267268 	300.0002588485102 	0.0007559784816416963 	101325.3059518393
-0.4742242242242246 	300.0001859679106 	0.0005435222937838182 	101325.2198073485
-0.471721721721722 	300.0001320141898 	0.0003861126663195124 	101325.1560349729
-0.4692192192192195 	300.000092626924 	0.0002711082114150944 	101325.1094802243
-0.4667167167167169 	300.0000642573629 	0.0001882082790856038 	101325.0759484633
-0.4642142142142145 	300.0000440866916 	0.000129220180797014 	101325.0521074897
-0.461711711711712 	300.000029923395 	8.776854282306028e-05 	101325.0353671875
-0.4592092092092094 	300.0000200977814 	5.899010465358432e-05 	101325.0237539045
-0.456706706706707 	300.0000133607174 	3.924280977293215e-05 	101325.0157911019
-0.4542042042042045 	300.0000087932694 	2.58454878685331e-05 	101325.0103928816
-0.451701701701702 	300.0000057308663 	1.685586847455703e-05 	101325.0067733487
-0.4491991991991995 	300.0000036993464 	1.088809694635887e-05 	101325.0043722774
-0.4466966966966969 	300.0000023656477 	6.967485157619275e-06 	101325.0027959992
-0.4441941941941945 	300.0000014990005 	4.417806111477155e-06 	101325.0017716392
-0.441691691691692 	300.0000009412636 	2.776037044827658e-06 	101325.0011125059
-0.4391891891891895 	300.0000005858943 	1.729042647112688e-06 	101325.0006924593
-0.436686686686687 	300.0000003615118 	1.067642218487221e-06 	101325.0004272908
-0.4341841841841846 	300.000000221207 	6.536534369671108e-07 	101325.0002614324
-0.431681681681682 	300.0000001341684 	3.968726715504889e-07 	101325.0001586232
-0.4291791791791794 	300.0000000806741 	2.389916769532362e-07 	101325.0000954571
-0.426676676676677 	300.0000000481244 	1.427682652269672e-07 	101325.0000569824
-0.4241741741741744 	300.0000000285234 	8.460949215133031e-08 	101325.0000337456
-0.421671671671672 	300.0000000167947 	4.975873850517958e-08 	101325.000019828
-0.4191691691691694 	300.0000000098462 	2.903710123768965e-08 	101325.0000115604
-0.4166666666666669 	300.0000000057343 	1.682192614097215e-08 	101325.0000066878
-0.4141641641641645 	300.0000000031775 	9.671136193097105e-09 	101325.0000038386
-0.411661661661662 	300.0000000018632 	5.522233278573188e-09 	101325.0000021852
-0.4091591591591594 	300.0000000010538 	3.129061983096461e-09 	101325.0000012332
-0.406656656656657 	300.0000000005129 	1.762602597013744e-09 	101325.0000006888
-0.4041541541541545 	300.0000000003471 	9.832319807550828e-10 	101325.0000003799
-0.401651651651652 	300.0000000000884 	5.4849297287355e-10 	101325.0000002058
-0.3991491491491494 	300.0000000000954 	2.991184166939877e-10 	101325.0000001086
-0.396646646646647 	300.0000000000018 	1.67973534061538e-10 	101325.0000000547
-0.3941441441441444 	299.9999999999984 	8.80711572231907e-11 	101325.0000000251
-0.3916416416416419 	299.9999999999343 	5.174939300975959e-11 	101325.0000000089
-0.3891391391391395 	299.9999999999637 	2.510871990853201e-11 	101325.0000000002
-0.3866366366366368 	299.9999999999549 	1.591991303325192e-11 	101324.9999999955
-0.3841341341341344 	299.999999999998 	7.221225729492837e-12 	101324.9999999932
-0.381631631631632 	299.9999999999445 	4.999498437015425e-12 	101324.9999999916
-0.3791291291291294 	300.000000000008 	2.127020879986288e-12 	101324.9999999908
-0.3766266266266269 	300.0000000000274 	1.120196146258829e-12 	101324.9999999904
-0.3741241241241244 	300.0000000000281 	7.929359581804857e-13 	101324.9999999906
-0.371621621621622 	300.0000000000175 	1.470031447481812e-12 	101324.9999999902
-0.3691191191191194 	300.000000000006 	1.906850684635673e-12 	101324.9999999902
-0.366616616616617 	300.0000000000103 	2.073421191405815e-12 	101324.9999999901
-0.3641141141141143 	299.9999999999544 	2.81573433392663e-12 	101324.9999999901
-0.3616116116116119 	299.9999999999378 	9.84974342739936e-13 	101324.9999999902
-0.3591091091091095 	299.9999999999853 	1.773977269173145e-12 	101324.9999999903
-0.356606606606607 	299.9999999999778 	1.265205251880829e-12 	101324.9999999904
-0.3541041041041044 	299.9999999999824 	1.622505609866196e-12 	101324.9999999905
-0.3516016016016019 	299.9999999999982 	3.054771571068266e-12 	101324.9999999904
-0.3490990990990994 	299.9999999999804 	1.582992675479478e-12 	101324.99999999
-0.346596596596597 	300.0000000000529 	4.038480312612931e-12 	101324.9999999902
-0.3440940940940944 	300.0000000000633 	2.221685846319303e-12 	101324.99999999
-0.3415915915915919 	300.0000000000185 	5.42007132906885e-12 	101324.99999999
-0.3390890890890895 	299.9999999999758 	3.742435325995724e-12 	101324.9999999899
-0.3365865865865869 	300.0000000000238 	5.751284912412987e-12 	101324.99999999
-0.3340840840840844 	300.0000000000101 	3.943280394586458e-12 	101324.9999999903
-0.3315815815815819 	300.0000000000321 	4.519226480062309e-12 	101324.9999999906
-0.3290790790790794 	300.0000000000159 	3.133802592703105e-12 	101324.9999999909
-0.3265765765765769 	299.9999999999196 	4.401119471472541e-12 	101324.9999999912
-0.3240740740740744 	299.9999999999929 	2.394378359667976e-12 	101324.9999999909
-0.3215715715715718 	300.0000000000067 	4.845084139878849e-12 	101324.999999991
-0.3190690690690695 	299.9999999999155 	2.217190442320414e-12 	101324.9999999909
-0.3165665665665668 	299.9999999999886 	4.705127529383514e-12 	101324.999999991
-0.3140640640640644 	300.0000000000066 	1.280208984206918e-12 	101324.999999991
-0.311561561561562 	299.9999999999151 	5.017611514668249e-12 	101324.9999999909
-0.3090590590590593 	299.9999999999919 	1.433209912019364e-12 	101324.9999999909
-0.3065565565565568 	300.0000000000015 	6.250272699610213e-12 	101324.9999999909
-0.3040540540540545 	300.0000000000222 	1.959770519471121e-12 	101324.9999999909
-0.3015515515515518 	300.0000000000412 	5.945225497560534e-12 	101324.9999999908
-0.2990490490490494 	299.9999999999382 	1.102726723594944e-12 	101324.999999991
-0.2965465465465469 	299.999999999981 	3.626434585619404e-12 	101324.9999999911
-0.2940440440440444 	300.0000000000006 	1.608198320718786e-12 	101324.999999991
-0.2915415415415418 	300.0000000000021 	2.378082640931468e-12 	101324.9999999913
-0.2890390390390395 	300.0000000000031 	1.915948424118334e-12 	101324.9999999912
-0.2865365365365368 	299.9999999999748 	1.413759429373053e-12 	101324.9999999911
-0.2840340340340343 	300.0000000000058 	2.68757646497037e-12 	101324.9999999913
-0.2815315315315318 	299.999999999919 	1.219301622533595e-12 	101324.9999999913
-0.2790290290290295 	299.9999999999509 	3.08776397785211e-12 	101324.9999999913
-0.2765265265265269 	300.0000000000137 	2.299977698488505e-12 	101324.9999999914
-0.2740240240240244 	300.0000000000382 	2.638014319152962e-12 	101324.9999999914
-0.2715215215215219 	300.0000000000155 	2.916917401770754e-12 	101324.9999999916
-0.2690190190190194 	299.9999999999371 	2.247496006408391e-12 	101324.9999999913
-0.2665165165165169 	299.9999999999974 	2.622727478025102e-12 	101324.9999999908
-0.2640140140140144 	299.9999999999593 	1.078930339039718e-12 	101324.9999999907
-0.2615115115115119 	299.9999999999969 	1.711004895571031e-12 	101324.9999999905
-0.2590090090090094 	299.9999999999242 	4.164114477114918e-13 	101324.9999999904
-0.2565065065065068 	299.9999999999982 	1.326294270185355e-12 	101324.9999999903
-0.2540040040040044 	300.0000000000001 	2.093800585483503e-12 	101324.9999999902
-0.2515015015015019 	300.0000000000509 	1.549030866870033e-12 	101324.9999999902
-0.2489989989989994 	300.0000000000575 	4.194525603326301e-12 	101324.9999999901
-0.2464964964964968 	299.9999999999905 	1.863246496161023e-12 	101324.9999999904
-0.2439939939939944 	300.0000000000006 	6.248888209298055e-12 	101324.9999999903
-0.2414914914914919 	299.9999999999666 	2.120287901113319e-12 	101324.9999999904
-0.2389889889889893 	300.000000000004 	6.207350939695771e-12 	101324.9999999903
-0.2364864864864869 	300.0000000000228 	1.902361057794629e-12 	101324.9999999907
-0.2339839839839843 	299.9999999999133 	6.173651593572505e-12 	101324.9999999909
-0.2314814814814819 	299.9999999999803 	2.407134883922074e-12 	101324.9999999909
-0.2289789789789792 	299.9999999999148 	6.369664319218289e-12 	101324.9999999908
-0.2264764764764769 	299.9999999999379 	3.283261873762064e-12 	101324.9999999909
-0.2239739739739743 	299.9999999999546 	5.239203355172174e-12 	101324.999999991
-0.2214714714714718 	299.999999999931 	4.106962537451633e-12 	101324.9999999911
-0.2189689689689693 	299.9999999999679 	3.719384445400873e-12 	101324.999999991
-0.2164664664664669 	299.9999999999783 	5.303163239502169e-12 	101324.9999999906
-0.2139639639639643 	299.999999999917 	4.228924582926122e-12 	101324.9999999905
-0.2114614614614618 	299.9999999999699 	4.331272544660628e-12 	101324.9999999904
-0.2089589589589593 	299.9999999999915 	3.945635158188914e-12 	101324.9999999901
-0.2064564564564568 	299.9999999999902 	3.722148632659834e-12 	101324.9999999902
-0.2039539539539543 	299.9999999998905 	4.583167304019924e-12 	101324.9999999905
-0.2014514514514518 	299.9999999999429 	1.879177079540961e-12 	101324.999999991
-0.1989489489489494 	299.9999999999719 	4.266563274942627e-12 	101324.9999999912
-0.1964464464464468 	299.9999999999982 	1.121324912934177e-12 	101324.9999999911
-0.1939439439439443 	299.9999999999838 	4.82910885613547e-12 	101324.9999999914
-0.1914414414414418 	299.9999999999073 	2.286471748881142e-12 	101324.9999999915
-0.1889389389389393 	300.0000000000089 	4.624296067023297e-12 	101324.9999999912
-0.1864364364364368 	300.0000000000443 	2.855033069132897e-12 	101324.9999999911
-0.1839339339339343 	299.999999999966 	4.455360773186119e-12 	101324.9999999906
-0.1814314314314318 	299.9999999999936 	2.419807813803562e-12 	101324.9999999906
-0.1789289289289293 	299.99999999989 	4.804253567641033e-12 	101324.9999999905
-0.1764264264264268 	299.999999999972 	1.749062295580576e-12 	101324.9999999905
-0.1739239239239243 	299.9999999998805 	5.29549248734002e-12 	101324.9999999903
-0.1714214214214218 	299.9999999999877 	3.950999739341445e-13 	101324.9999999902
-0.1689189189189193 	299.9999999999461 	6.476885036595149e-12 	101324.9999999904
-0.1664164164164168 	300.0000000000064 	1.439655888778918e-12 	101324.9999999904
-0.1639139139139143 	299.999999999991 	7.356938219711805e-12 	101324.99999999
-0.1614114114114118 	300.0000000000341 	2.475955947366289e-12 	101324.9999999899
-0.1589089089089093 	299.9999999999974 	9.555795184710167e-12 	101324.9999999899
-0.1564064064064068 	299.9999999999828 	2.864543409041148e-12 	101324.9999999894
-0.1539039039039043 	299.9999999999897 	1.027942589697022e-11 	101324.9999999891
-0.1514014014014018 	300.0000000000312 	2.620418198044294e-12 	101324.9999999892
-0.1488988988988993 	299.9999999999908 	9.492980868202487e-12 	101324.9999999892
-0.1463963963963968 	300.000000000001 	1.456673406974297e-12 	101324.9999999895
-0.1438938938938943 	299.9999999999451 	7.72112432684314e-12 	101324.9999999896
-0.1413913913913918 	299.9999999999134 	1.755022816699876e-12 	101324.9999999899
-0.1388888888888893 	299.9999999999753 	4.789753403851651e-12 	101324.9999999901
-0.1363863863863868 	299.9999999998731 	1.348774779524822e-12 	101324.9999999904
-0.1338838838838843 	299.9999999999106 	3.042134337232665e-12 	101324.9999999906
-0.1313813813813818 	299.9999999999937 	1.137793421678518e-12 	101324.9999999907
-0.1288788788788793 	299.9999999999628 	3.000190152909997e-12 	101324.9999999904
-0.1263763763763768 	299.9999999999642 	1.238801050579468e-12 	101324.9999999904
-0.1238738738738743 	299.9999999999134 	2.686698589292145e-12 	101324.9999999901
-0.1213713713713717 	299.9999999999739 	1.902483170140359e-12 	101324.9999999897
-0.1188688688688693 	300.0000000000035 	3.731498682093888e-12 	101324.9999999899
-0.1163663663663668 	299.9999999998887 	1.77725833391509e-12 	101324.9999999902
-0.1138638638638643 	299.999999999989 	4.30855596764106e-12 	101324.9999999902
-0.1113613613613618 	299.9999999999843 	2.121688382344499e-12 	101324.9999999902
-0.1088588588588592 	299.9999999999741 	5.258147029124149e-12 	101324.99999999
-0.1063563563563568 	299.9999999999429 	1.569404235961319e-12 	101324.9999999902
-0.1038538538538543 	299.9999999999705 	4.227333349771736e-12 	101324.9999999901
-0.1013513513513517 	300.0000000000172 	2.706914025954037e-13 	101324.9999999901
-0.09884884884884926 	299.9999999999316 	4.524782579968041e-12 	101324.99999999
-0.09634634634634676 	299.9999999998757 	6.173433867569776e-13 	101324.99999999
-0.09384384384384425 	299.9999999999164 	2.707535115035573e-12 	101324.99999999
-0.09134134134134177 	300.0000000000275 	5.006595041070345e-13 	101324.9999999899
-0.08883883883883925 	300.0000000000077 	2.532209701975423e-12 	101324.9999999898
-0.08633633633633674 	299.9999999999486 	8.918754399673692e-13 	101324.99999999
-0.08383383383383426 	300.0000000000134 	8.536650247326846e-13 	101324.9999999901
-0.08133133133133173 	299.9999999999606 	6.366244753386424e-13 	101324.9999999899
-0.07882882882882926 	299.9999999998705 	5.926849331878204e-13 	101324.9999999899
-0.07632632632632676 	299.9999999999532 	5.598677163805066e-14 	101324.99999999
-0.07382382382382424 	299.9999999998797 	3.400025719422528e-13 	101324.99999999
-0.07132132132132173 	300.0000000000168 	3.584983206554732e-13 	101324.9999999902
-0.06881881881881925 	299.9999999999568 	5.382308025104783e-13 	101324.9999999901
-0.06631631631631671 	299.9999999998794 	3.5455079832543e-13 	101324.9999999903
-0.06381381381381425 	299.9999999999474 	1.082343957682691e-12 	101324.9999999901
-0.06131131131131173 	299.999999999949 	1.612402111231396e-12 	101324.9999999897
-0.05880880880880923 	299.9999999998968 	1.711248433187875e-12 	101324.9999999896
-0.05630630630630672 	299.9999999999659 	1.212311400500815e-12 	101324.9999999895
-0.05380380380380424 	300.0000000000177 	1.747072280178702e-12 	101324.9999999893
-0.05130130130130173 	300.0000000000124 	2.099089188095155e-12 	101324.9999999895
-0.04879879879879922 	299.9999999999336 	2.64435625459903e-12 	101324.9999999896
-0.04629629629629672 	299.9999999999225 	1.899956451081837e-12 	101324.9999999899
-0.04379379379379422 	299.9999999999059 	2.293074727689396e-12 	101324.9999999894
-0.04129129129129173 	299.9999999999779 	1.691495751036044e-12 	101324.9999999894
-0.03878878878878922 	299.9999999999817 	2.44394861807036e-12 	101324.9999999897
-0.03628628628628671 	299.9999999999804 	2.501620478005813e-12 	101324.9999999897
-0.03378378378378422 	299.999999999908 	2.877659600538959e-12 	101324.9999999895
-0.03128128128128172 	299.9999999999589 	1.225760581324049e-12 	101324.9999999893
-0.02877877877877922 	299.9999999999602 	1.555229273881582e-12 	101324.9999999894
-0.0262762762762767 	299.9999999998888 	1.453781434484477e-12 	101324.9999999896
-0.02377377377377422 	300.0000000000221 	1.283882648915526e-12 	101324.9999999898
-0.0212712712712717 	299.9999999998901 	1.161189733053527e-12 	101324.9999999898
-0.01876876876876921 	299.9999999999614 	7.534157798015929e-13 	101324.9999999901
-0.01626626626626671 	300.0000000000162 	1.759324538221044e-12 	101324.9999999899
-0.0137637637637642 	299.9999999999598 	1.32401133000707e-12 	101324.9999999898
-0.0112612612612617 	300.0000000000206 	1.400075049294384e-12 	101324.9999999894
-0.008758758758759198 	299.9999999999951 	1.262485579250971e-12 	101324.9999999891
-0.006256256256256697 	299.9999999998665 	1.98627254656828e-12 	101324.9999999892
-0.003753753753754195 	299.9999999999424 	4.836246708589672e-13 	101324.9999999891
-0.001251251251251693 	299.9999999999168 	1.855070536969841e-13 	101324.9999999889
0.00125125125125081 	299.9999999999447 	4.714594109946121e-13 	101324.9999999892
0.003753753753753312 	299.9999999999578 	9.585899715214498e-14 	101324.9999999891
0.006256256256255817 	299.9999999998721 	4.322151301332245e-13 	101324.9999999895
0.008758758758758317 	299.9999999999825 	1.962368128620132e-13 	101324.9999999897
0.01126126126126082 	300.0000000000057 	1.178688468228229e-13 	101324.9999999898
0.01376376376376332 	299.9999999999615 	1.963361725331481e-13 	101324.9999999898
0.01626626626626582 	300.0000000000094 	4.113495177085699e-14 	101324.9999999901
0.01876876876876833 	299.9999999999442 	4.686841593876736e-13 	101324.9999999901
0.02127127127127083 	299.9999999999594 	4.352067078377666e-13 	101324.9999999901
0.02377377377377332 	299.999999999997 	1.023660213568758e-12 	101324.99999999
0.02627627627627583 	299.999999999884 	9.416457680269659e-13 	101324.99999999
0.02877877877877833 	300.0000000000155 	1.161084585952791e-12 	101324.99999999
0.03128128128128083 	299.9999999999453 	4.335975174191243e-13 	101324.9999999903
0.03378378378378333 	299.9999999998896 	1.098557852577502e-12 	101324.9999999902
0.03628628628628584 	299.9999999999644 	6.045649787841004e-13 	101324.9999999901
0.03878878878878834 	299.9999999999746 	7.45341175164539e-13 	101324.9999999897
0.04129129129129084 	299.9999999999741 	5.302906391937843e-13 	101324.9999999897
0.04379379379379333 	299.9999999999442 	1.121427441439107e-12 	101324.9999999899
0.04629629629629585 	299.9999999998718 	1.355586468381642e-12 	101324.9999999898
0.04879879879879834 	299.9999999999517 	2.84225997743022e-12 	101324.99999999
0.05130130130130085 	300.0000000000136 	2.510194532188448e-12 	101324.9999999901
0.05380380380380335 	300.000000000025 	2.231800767257984e-12 	101324.9999999901
0.05630630630630584 	299.9999999999973 	1.172502642960067e-12 	101324.9999999902
0.05880880880880836 	299.9999999999044 	1.059685624989983e-12 	101324.9999999902
0.06131131131131085 	299.9999999999653 	4.649202676142961e-13 	101324.9999999902
0.06381381381381336 	299.9999999999556 	6.176611997870617e-13 	101324.9999999904
0.06631631631631586 	299.9999999998761 	8.055366219771745e-13 	101324.9999999906
0.06881881881881835 	299.9999999999501 	1.815946295147936e-12 	101324.9999999908
0.07132132132132088 	299.9999999999811 	1.317053240098755e-12 	101324.9999999906
0.07382382382382337 	299.9999999998807 	1.343720273551755e-12 	101324.9999999905
0.07632632632632587 	299.9999999999646 	9.193805963513889e-13 	101324.9999999906
0.07882882882882837 	299.999999999925 	1.027284228205278e-12 	101324.9999999906
0.08133133133133086 	299.9999999999789 	5.97066660995466e-13 	101324.9999999908
0.08383383383383337 	299.9999999999807 	5.999673029694988e-13 	101324.9999999906
0.08633633633633589 	299.9999999998886 	1.057730084363435e-12 	101324.9999999904
0.08883883883883838 	300.0000000000071 	1.669820573346094e-12 	101324.9999999903
0.09134134134134086 	299.9999999999768 	1.238169940402275e-12 	101324.9999999899
0.09384384384384339 	299.9999999998742 	2.648407697748787e-12 	101324.9999999901
0.09634634634634588 	299.9999999999534 	2.791322775783524e-12 	101324.9999999899
0.09884884884884838 	299.9999999999691 	1.937859854500377e-12 	101324.9999999897
0.1013513513513509 	300.0000000000214 	1.76895716617828e-12 	101324.9999999899
0.1038538538538534 	299.9999999999498 	1.393404907592034e-12 	101324.9999999898
0.1063563563563559 	300.0000000000085 	1.617358362804168e-12 	101324.9999999897
0.1088588588588584 	300.0000000000319 	8.515758991573248e-13 	101324.9999999898
0.1113613613613609 	299.9999999999116 	1.028214387701518e-12 	101324.99999999
0.1138638638638634 	299.9999999999381 	6.55726340117029e-13 	101324.9999999901
0.1163663663663659 	299.999999999945 	5.135090746514585e-13 	101324.99999999
0.1188688688688684 	299.9999999999693 	4.016050734708785e-13 	101324.9999999901
0.1213713713713709 	300.0000000000048 	1.654691175149282e-13 	101324.9999999903
0.1238738738738734 	299.9999999999148 	5.033922040644829e-13 	101324.9999999898
0.1263763763763759 	299.9999999999812 	9.706423412138064e-13 	101324.9999999896
0.1288788788788784 	299.9999999999778 	1.285566101327075e-12 	101324.9999999894
0.1313813813813809 	299.999999999979 	1.746758918855197e-12 	101324.9999999895
0.1338838838838834 	299.9999999999725 	2.496453882515122e-12 	101324.9999999896
0.1363863863863859 	300.0000000000197 	1.808175717925113e-12 	101324.9999999895
0.1388888888888884 	300.0000000000493 	1.703195343686013e-12 	101324.9999999896
0.1413913913913909 	300.0000000000065 	1.773809182136786e-13 	101324.9999999896
0.1438938938938934 	299.9999999999908 	5.624594223352036e-13 	101324.9999999896
0.1463963963963959 	299.9999999999504 	1.114748815009131e-12 	101324.9999999897
0.1488988988988985 	299.9999999998952 	1.309635815920357e-12 	101324.9999999901
0.1514014014014009 	299.9999999999679 	3.765228602949476e-13 	101324.9999999903
0.1539039039039035 	299.9999999999596 	3.043706058837797e-12 	101324.9999999906
0.1564064064064059 	299.9999999999148 	2.948020455135872e-13 	101324.9999999906
0.1589089089089084 	299.9999999999716 	3.448194881716203e-12 	101324.9999999904
0.1614114114114109 	299.9999999999645 	4.828614277428678e-13 	101324.9999999899
0.1639139139139134 	299.9999999998955 	2.488830764927862e-12 	101324.9999999897
0.166416416416416 	300.0000000000057 	1.908545465175604e-12 	101324.9999999897
0.1689189189189185 	300.0000000000392 	2.483154697554529e-12 	101324.9999999896
0.1714214214214209 	300.0000000000074 	3.220394139550357e-12 	101324.99999999
0.1739239239239235 	299.9999999999916 	1.778924564197136e-12 	101324.9999999897
0.1764264264264259 	299.9999999999671 	3.324488669106179e-12 	101324.9999999897
0.1789289289289284 	300.0000000000102 	1.228487638430681e-12 	101324.9999999897
0.181431431431431 	299.9999999999598 	3.653984126587222e-12 	101324.9999999893
0.1839339339339334 	299.9999999999631 	2.128212247684109e-12 	101324.9999999892
0.186436436436436 	299.9999999999151 	2.872308136681658e-12 	101324.9999999895
0.1889389389389385 	299.9999999999715 	2.383185480425158e-12 	101324.9999999893
0.191441441441441 	299.9999999999662 	1.354842525619778e-12 	101324.999999989
0.1939439439439434 	299.9999999999044 	2.49184985830086e-12 	101324.9999999888
0.196446446446446 	299.9999999999379 	9.75841470810989e-13 	101324.9999999887
0.1989489489489485 	299.9999999999543 	3.489543456411475e-12 	101324.9999999886
0.2014514514514509 	299.9999999999821 	1.012124203836554e-12 	101324.9999999886
0.2039539539539535 	299.9999999999944 	2.052980721319419e-12 	101324.9999999891
0.2064564564564559 	299.9999999999472 	1.905296267227909e-12 	101324.9999999889
0.2089589589589585 	299.9999999999837 	2.373159401288563e-12 	101324.999999989
0.211461461461461 	299.9999999999202 	3.051723747012625e-12 	101324.9999999889
0.2139639639639635 	299.999999999966 	2.410891695199446e-12 	101324.999999989
0.2164664664664659 	299.9999999999937 	3.720418946795829e-12 	101324.9999999891
0.2189689689689684 	299.999999999996 	1.181869212504357e-12 	101324.9999999894
0.221471471471471 	299.9999999999945 	3.153507962403812e-12 	101324.9999999894
0.2239739739739735 	299.9999999999439 	1.29037717462333e-12 	101324.9999999896
0.226476476476476 	299.9999999999764 	3.379922299750448e-12 	101324.99999999
0.2289789789789785 	299.9999999999926 	2.565039145150249e-12 	101324.9999999901
0.231481481481481 	299.9999999999882 	2.876664859540417e-12 	101324.9999999901
0.2339839839839835 	299.9999999999815 	3.040366835410995e-12 	101324.99999999
0.236486486486486 	300.0000000000317 	2.542823850755512e-12 	101324.9999999897
0.2389889889889885 	300.0000000000023 	3.648436747710782e-12 	101324.9999999896
0.241491491491491 	299.9999999999053 	1.575938454815263e-12 	101324.9999999892
0.2439939939939935 	299.9999999999748 	4.024720449664881e-12 	101324.9999999886
0.246496496496496 	299.9999999999897 	1.444598393700165e-12 	101324.9999999883
0.2489989989989985 	300.0000000000426 	2.238788642130823e-12 	101324.9999999885
0.251501501501501 	300.0000000000371 	9.459922973097245e-13 	101324.9999999888
0.2540040040040035 	299.9999999999898 	2.511999554357798e-13 	101324.999999989
0.256506506506506 	300.0000000000296 	6.288484596736295e-13 	101324.9999999892
0.2590090090090086 	299.9999999998984 	6.376925614779722e-13 	101324.9999999894
0.261511511511511 	299.9999999999981 	2.460400199843238e-12 	101324.9999999894
0.2640140140140135 	299.999999999988 	8.834781706253745e-13 	101324.9999999895
0.2665165165165161 	299.9999999999205 	1.197984186751774e-12 	101324.9999999893
0.2690190190190185 	300.0000000000192 	5.925547265517436e-13 	101324.9999999893
0.271521521521521 	300.000000000022 	6.739787128519736e-13 	101324.9999999893
0.2740240240240235 	300.0000000000224 	8.637979721397619e-13 	101324.9999999894
0.276526526526526 	300.0000000000115 	1.566735051282029e-13 	101324.9999999895
0.2790290290290286 	299.999999999936 	9.710344746744823e-13 	101324.9999999896
0.281531531531531 	299.9999999999206 	3.721758715661977e-13 	101324.9999999897
0.2840340340340335 	299.9999999999803 	1.800489967048892e-12 	101324.9999999897
0.2865365365365361 	299.9999999999527 	1.256828777834075e-12 	101324.9999999896
0.2890390390390385 	299.9999999999952 	2.038320743446585e-12 	101324.9999999894
0.291541541541541 	299.9999999999944 	2.771485083574352e-12 	101324.9999999892
0.2940440440440436 	299.9999999999901 	1.581077909300165e-12 	101324.9999999892
0.296546546546546 	299.9999999999849 	3.250620757577169e-12 	101324.999999989
0.2990490490490486 	299.9999999999299 	8.814205919398681e-13 	101324.9999999888
0.3015515515515511 	300.000000000038 	4.182195415100705e-12 	101324.9999999885
0.3040540540540535 	300.000000000003 	2.437440917998692e-12 	101324.9999999888
0.3065565565565562 	299.9999999999897 	4.078229101009687e-12 	101324.9999999888
0.3090590590590585 	299.999999999985 	2.465412526143508e-12 	101324.999999989
0.3115615615615611 	299.9999999999312 	3.698866804632384e-12 	101324.9999999893
0.3140640640640635 	300.0000000000057 	7.539767441038385e-13 	101324.9999999895
0.316566566566566 	299.9999999999903 	3.512561156392601e-12 	101324.9999999899
0.3190690690690687 	299.9999999999488 	8.960723819759067e-13 	101324.9999999899
0.3215715715715711 	300.0000000000136 	3.455231327238522e-12 	101324.9999999898
0.3240740740740735 	299.9999999999948 	8.61818121864531e-13 	101324.9999999899
0.326576576576576 	299.9999999998856 	2.806790420182122e-12 	101324.9999999902
0.3290790790790786 	300.0000000000133 	8.441829022167865e-13 	101324.9999999902
0.3315815815815811 	300.0000000000469 	1.592492654332121e-12 	101324.99999999
0.3340840840840836 	299.9999999999885 	2.940018724983257e-13 	101324.99999999
0.3365865865865861 	300.0000000000625 	1.689040878316108e-12 	101324.9999999897
0.3390890890890886 	300.0000000000505 	4.134965216174485e-13 	101324.9999999895
0.3415915915915911 	299.999999999998 	1.333448279715256e-12 	101324.9999999894
0.3440940940940935 	299.999999999948 	7.458991741666264e-13 	101324.9999999897
0.3465965965965962 	300.0000000000457 	1.09781241208499e-12 	101324.99999999
0.3490990990990985 	300.0000000000358 	5.659845523076246e-13 	101324.99999999
0.3516016016016011 	299.9999999999879 	1.366825510941305e-13 	101324.9999999899
0.3541041041041035 	300.0000000000084 	2.199096942102e-13 	101324.99999999
0.3566066066066061 	299.9999999999485 	1.050708506429847e-12 	101324.9999999901
0.3591091091091085 	299.9999999999063 	9.604082990947586e-13 	101324.99999999
0.3616116116116112 	299.9999999999307 	1.522185297975763e-12 	101324.9999999901
0.3641141141141137 	299.9999999999222 	2.398898721414148e-12 	101324.99999999
0.3666166166166161 	299.9999999999158 	1.334003702513905e-12 	101324.9999999902
0.3691191191191185 	300.0000000000417 	3.744210646446634e-12 	101324.9999999899
0.371621621621621 	300.0000000000171 	1.659834843728191e-12 	101324.9999999898
0.3741241241241237 	300.0000000000535 	2.52116381530064e-12 	101324.9999999897
0.3766266266266261 	300.0000000000319 	1.85317499874031e-12 	101324.9999999898
0.3791291291291286 	299.9999999999836 	8.43358978375928e-13 	101324.9999999896
0.3816316316316311 	299.9999999999039 	2.329925273861611e-12 	101324.9999999895
0.3841341341341336 	300.0000000000121 	1.115773813111024e-12 	101324.9999999895
0.3866366366366362 	299.999999999997 	1.729811849934622e-12 	101324.9999999894
0.3891391391391387 	299.9999999999509 	7.936791109589538e-13 	101324.9999999895
0.391641641641641 	299.9999999999905 	1.122117791992842e-12 	101324.9999999893
0.3941441441441436 	300.0000000000064 	5.37816197659879e-13 	101324.9999999894
0.3966466466466462 	299.9999999999966 	1.342536123869105e-12 	101324.9999999896
0.3991491491491486 	299.9999999999392 	3.440911988255006e-13 	101324.9999999894
0.4016516516516512 	299.9999999999043 	8.536248856753805e-13 	101324.9999999897
0.4041541541541536 	299.9999999999454 	1.311053761748001e-12 	101324.9999999896
0.4066566566566561 	299.9999999999402 	4.921648751828557e-13 	101324.9999999895
0.4091591591591587 	299.9999999999848 	2.068609427732935e-12 	101324.9999999894
0.4116616616616612 	299.9999999999975 	1.008907375635895e-12 	101324.9999999895
0.4141641641641635 	300.0000000000476 	1.098681692820203e-12 	101324.9999999896
0.4166666666666662 	299.9999999999932 	8.71776199363047e-13 	101324.9999999897
0.4191691691691687 	299.9999999999303 	1.1125953051545e-12 	101324.99999999
0.421671671671671 	300.0000000000127 	1.705720926947726e-12 	101324.99999999
0.4241741741741737 	299.9999999999674 	2.366962378512104e-12 	101324.9999999901
0.4266766766766761 	299.9999999999511 	2.717987929475814e-12 	101324.99999999
0.4291791791791785 	300.000000000016 	3.175084153032405e-12 	101324.9999999901
0.4316816816816812 	300.0000000000138 	2.94082557547749e-12 	101324.9999999901
0.4341841841841836 	299.9999999999865 	3.435963459284492e-12 	101324.9999999899
0.4366866866866862 	299.9999999999109 	1.661553590214504e-12 	101324.9999999899
0.4391891891891885 	299.9999999999839 	2.693849329224958e-12 	101324.9999999899
0.4416916916916913 	299.9999999999811 	1.104798289439553e-12 	101324.99999999
0.4441941941941936 	299.9999999999832 	1.672700692238173e-12 	101324.9999999899
0.4466966966966961 	299.9999999999058 	5.968257473510447e-13 	101324.9999999896
0.4491991991991987 	299.9999999999729 	9.866128625337179e-13 	101324.9999999895
0.4517017017017012 	299.9999999999651 	2.944498572635113e-13 	101324.9999999896
0.4542042042042035 	299.9999999999916 	1.190688962507797e-12 	101324.9999999894
0.4567067067067062 	299.9999999999927 	1.551758542469913e-12 	101324.9999999891
0.4592092092092087 	299.9999999999151 	1.302285798922192e-12 	101324.9999999888
0.4617117117117112 	300.0000000000205 	1.38466422487915e-12 	101324.9999999889
0.4642142142142137 	299.9999999999565 	1.733312657007874e-12 	101324.9999999888
0.4667167167167162 	299.9999999999878 	1.456973906802835e-12 	101324.999999989
0.4692192192192187 	299.9999999999517 	1.38906869206918e-12 	101324.9999999892
0.4717217217217212 	300.0000000000117 	1.035967760513606e-12 	101324.9999999893
0.4742242242242236 	299.9999999999523 	1.008857328485924e-12 	101324.9999999896
0.4767267267267262 	299.9999999999734 	8.977276588187871e-13 	101324.9999999896
0.4792292292292287 	300.0000000000217 	1.129675198459718e-12 	101324.9999999895
0.4817317317317312 	300.0000000000355 	7.408039132625992e-13 	101324.9999999897
0.4842342342342336 	299.9999999999866 	3.452445519075588e-13 	101324.9999999899
0.4867367367367362 	299.99999999995 	4.445656649843966e-13 	101324.9999999899
0.4892392392392387 	300.0000000000313 	1.625519135105864e-12 	101324.9999999899
0.4917417417417412 	300.0000000000057 	7.831816183479108e-13 	101324.9999999898
0.4942442442442437 	299.9999999998999 	1.948063295693222e-12 	101324.9999999899
0.4967467467467462 	299.9999999999168 	6.832276489247534e-13 	101324.9999999901
0.4992492492492487 	299.9999999999142 	1.065988304154011e-12 	101324.9999999902
0.5017517517517511 	299.9999999999482 	1.455050461000404e-13 	101324.9999999904
0.5042542542542537 	299.9999999999625 	3.397697086766744e-13 	101324.9999999904
0.5067567567567562 	299.9999999999397 	3.274762444850815e-13 	101324.9999999904
0.5092592592592589 	299.9999999999624 	5.919456183089186e-13 	101324.9999999902
0.5117617617617611 	299.999999999952 	1.761426296802274e-12 	101324.99999999
0.5142642642642637 	299.9999999999853 	1.8572789338765e-12 	101324.9999999898
0.5167667667667663 	299.9999999999688 	3.016213413331622e-12 	101324.9999999896
0.5192692692692688 	299.9999999999083 	2.400913081679674e-12 	101324.9999999897
0.5217717717717714 	299.999999999932 	4.567892059002018e-12 	101324.9999999897
0.5242742742742736 	299.9999999999349 	2.124615575089004e-12 	101324.9999999892
0.5267767767767763 	299.9999999999537 	4.035633283921339e-12 	101324.999999989
0.5292792792792789 	299.9999999999349 	1.202042998419755e-12 	101324.9999999891
0.5317817817817813 	299.9999999998979 	4.86956650782185e-12 	101324.9999999892
0.5342842842842837 	300.0000000000168 	2.747209407705266e-12 	101324.9999999894
0.5367867867867864 	300.0000000000026 	4.241565958856567e-12 	101324.9999999896
0.5392892892892888 	299.9999999999578 	2.305099863774147e-12 	101324.9999999898
0.5417917917917912 	300.000000000003 	3.229856817267203e-12 	101324.99999999
0.5442942942942938 	299.999999999981 	1.265706044694992e-12 	101324.9999999901
0.5467967967967964 	299.9999999999405 	2.317809793891726e-12 	101324.9999999901
0.5492992992992988 	299.9999999999403 	1.866379857034774e-12 	101324.9999999904
0.5518018018018012 	299.9999999999386 	4.31203010366946e-12 	101324.9999999902
0.5543043043043039 	300.0000000000217 	4.399025823270993e-12 	101324.9999999905
0.5568068068068063 	299.9999999999911 	5.133819102989774e-12 	101324.9999999905
0.5593093093093087 	299.9999999999002 	4.309552286818285e-12 	101324.9999999902
0.5618118118118114 	299.999999999958 	6.074758732348019e-12 	101324.9999999904
0.5643143143143137 	299.9999999999423 	4.689385251669753e-12 	101324.9999999906
0.5668168168168163 	299.9999999999945 	5.014432664991781e-12 	101324.9999999908
0.5693193193193188 	300.0000000000358 	4.250668036203408e-12 	101324.9999999909
0.5718218218218213 	300.0000000000297 	3.486672079712223e-12 	101324.999999991
0.5743243243243239 	300.0000000000104 	4.390983333651055e-12 	101324.9999999909
0.5768268268268262 	300.0000000000049 	2.601073737582262e-12 	101324.9999999908
0.5793293293293288 	299.9999999999366 	4.97766786098763e-12 	101324.9999999907
0.5818318318318314 	299.9999999999102 	2.906386538258055e-12 	101324.9999999909
0.5843343343343338 	299.9999999999829 	7.439532588022908e-12 	101324.9999999911
0.5868368368368363 	299.9999999999773 	3.667890845061532e-12 	101324.9999999909
0.5893393393393387 	299.9999999999447 	7.044708704971689e-12 	101324.9999999908
0.5918418418418413 	299.9999999999382 	4.405200585516766e-12 	101324.9999999907
0.5943443443443439 	300.0000000000127 	6.503017958652144e-12 	101324.9999999905
0.5968468468468463 	300.000000000016 	4.462557367745591e-12 	101324.9999999907
0.5993493493493487 	300.0000000000389 	5.850049305929152e-12 	101324.9999999906
0.6018518518518514 	299.9999999999787 	3.958313850606576e-12 	101324.9999999907
0.6043543543543537 	299.9999999999983 	5.394025369437628e-12 	101324.9999999908
0.6068568568568564 	299.999999999985 	3.331762603545801e-12 	101324.9999999909
0.6093593593593587 	299.999999999928 	4.624486228899675e-12 	101324.999999991
0.6118618618618614 	299.9999999999181 	3.360117118087029e-12 	101324.9999999909
0.6143643643643638 	300.0000000000192 	4.685325435051748e-12 	101324.9999999907
0.6168668668668662 	299.9999999999859 	2.873384481673213e-12 	101324.9999999908
0.6193693693693688 	299.9999999999536 	4.7309464464178e-12 	101324.9999999907
0.6218718718718714 	299.9999999999632 	2.970894176708446e-12 	101324.9999999905
0.6243743743743737 	299.9999999999279 	4.861615900557339e-12 	101324.9999999906
0.6268768768768762 	299.9999999999232 	3.745828124031395e-12 	101324.999999991
0.629379379379379 	299.9999999999559 	5.238635633372744e-12 	101324.999999991
0.6318818818818812 	299.9999999999793 	4.481198048020741e-12 	101324.9999999913
0.6343843843843838 	300.0000000000195 	3.974927425286737e-12 	101324.9999999914
0.6368868868868864 	299.9999999999836 	4.276250543474015e-12 	101324.9999999912
0.6393893893893888 	299.9999999999205 	2.624373575570589e-12 	101324.9999999912
0.6418918918918912 	300.0000000000036 	4.909338345676077e-12 	101324.9999999912
0.6443943943943939 	299.9999999999737 	2.466114685984153e-12 	101324.9999999915
0.6468968968968963 	299.999999999982 	7.030584213557204e-12 	101324.9999999916
0.6493993993993988 	299.9999999999708 	3.705878015429054e-12 	101324.9999999916
0.6519019019019012 	299.999999999976 	7.047559134466482e-12 	101324.9999999916
0.6544044044044038 	299.9999999998973 	4.039188947216256e-12 	101324.9999999915
0.6569069069069065 	299.9999999999459 	7.482963610917725e-12 	101324.9999999915
0.6594094094094087 	299.9999999999604 	5.032714740460873e-12 	101324.9999999919
0.6619119119119113 	299.9999999999606 	7.007179252408905e-12 	101324.9999999921
0.664414414414414 	300.0000000000081 	4.58175699547163e-12 	101324.9999999921
0.6669169169169162 	300.0000000000188 	5.873601395619375e-12 	101324.9999999922
0.6694194194194188 	299.9999999999833 	3.910516150548007e-12 	101324.999999992
0.6719219219219214 	299.9999999999185 	5.21563552370679e-12 	101324.999999992
0.674424424424424 	299.9999999999731 	4.465396039217163e-12 	101324.9999999921
0.6769269269269262 	299.99999999992 	5.773189149388544e-12 	101324.9999999922
0.679429429429429 	300.0000000000023 	5.420920377644101e-12 	101324.9999999923
0.6819319319319311 	299.9999999999864 	6.452339332007069e-12 	101324.9999999923
0.6844344344344341 	299.999999999998 	5.916576550799948e-12 	101324.9999999923
0.686936936936936 	299.9999999999922 	6.460230808961289e-12 	101324.9999999924
0.6894394394394392 	299.999999999986 	5.296301929242728e-12 	101324.9999999923
0.6919419419419413 	299.9999999999873 	4.871909709711453e-12 	101324.9999999924
0.694444444444444 	299.9999999999272 	5.253645556660083e-12 	101324.9999999924
0.6969469469469463 	299.9999999999176 	5.198974983206798e-12 	101324.9999999921
0.6994494494494489 	299.9999999999149 	5.888784223737648e-12 	101324.999999992
0.7019519519519515 	299.9999999999779 	4.767673381801841e-12 	101324.9999999918
0.7044544544544538 	299.9999999999454 	6.246880142966704e-12 	101324.9999999917
0.7069569569569564 	299.9999999999978 	4.023718517306705e-12 	101324.9999999916
0.7094594594594589 	299.9999999999663 	6.689420389669486e-12 	101324.9999999916
0.7119619619619615 	299.9999999999113 	4.703663071510165e-12 	101324.9999999915
0.7144644644644638 	299.9999999999479 	6.95312645825763e-12 	101324.9999999912
0.7169669669669665 	299.9999999999121 	6.066387313273464e-12 	101324.9999999909
0.7194694694694688 	299.9999999999927 	7.385026580251778e-12 	101324.9999999911
0.7219719719719715 	299.9999999999866 	6.897006395190786e-12 	101324.9999999914
0.7244744744744737 	300.0000000000031 	6.90039610069119e-12 	101324.9999999918
0.7269769769769764 	299.9999999999964 	6.790328918823054e-12 	101324.9999999917
0.7294794794794791 	299.9999999999877 	5.977044344403066e-12 	101324.9999999919
0.7319819819819813 	299.9999999999781 	7.757648683827104e-12 	101324.9999999923
0.7344844844844839 	299.9999999999095 	6.122126916976676e-12 	101324.9999999923
0.7369869869869864 	299.9999999999399 	7.316407189912821e-12 	101324.9999999923
0.739489489489489 	299.9999999999346 	7.064389430922303e-12 	101324.9999999921
0.7419919919919914 	299.9999999999267 	7.268872661042092e-12 	101324.9999999918
0.7444944944944939 	299.9999999999792 	8.161315044908904e-12 	101324.9999999916
0.7469969969969963 	299.9999999999695 	6.658550084626858e-12 	101324.9999999914
0.7494994994994989 	299.9999999999374 	8.862329381643647e-12 	101324.9999999913
0.7520020020020015 	299.9999999999661 	6.177917210587541e-12 	101324.9999999913
0.7545045045045039 	299.9999999999631 	8.883031650137216e-12 	101324.9999999917
0.7570070070070062 	299.9999999999358 	5.987623661195032e-12 	101324.9999999919
0.7595095095095092 	299.9999999999253 	8.013553653512168e-12 	101324.999999992
0.7620120120120112 	300.0000000000053 	6.981364405347659e-12 	101324.9999999921
0.7645145145145138 	299.9999999999848 	7.282935766607555e-12 	101324.9999999923
0.7670170170170165 	299.9999999999268 	7.738865607461613e-12 	101324.9999999923
0.7695195195195191 	299.9999999999162 	6.622046248363519e-12 	101324.9999999923
0.7720220220220213 	299.9999999999287 	8.583142966667422e-12 	101324.9999999922
0.7745245245245239 	299.9999999999201 	6.389713346724704e-12 	101324.9999999921
0.7770270270270263 	299.99999999996 	8.270322358709562e-12 	101324.9999999922
0.779529529529529 	299.9999999999776 	7.32686076474756e-12 	101324.9999999923
0.7820320320320313 	299.9999999999692 	8.114614225613812e-12 	101324.9999999924
0.784534534534534 	300.0000000000009 	7.978565869088828e-12 	101324.9999999924
0.7870370370370364 	299.9999999999936 	7.693232444342357e-12 	101324.9999999923
0.7895395395395389 	299.9999999999787 	8.948484131937194e-12 	101324.9999999924
0.7920420420420413 	299.9999999999746 	7.600455145328502e-12 	101324.9999999928
0.794544544544544 	299.999999999975 	9.113355437817371e-12 	101324.999999993
0.7970470470470463 	299.9999999999986 	6.516513763473285e-12 	101324.9999999928
0.799549549549549 	299.9999999999815 	9.612304964900062e-12 	101324.9999999926
0.8020520520520515 	299.9999999999828 	6.52611924801244e-12 	101324.9999999923
0.8045545545545539 	299.9999999999407 	8.877067488756017e-12 	101324.9999999921
0.8070570570570563 	299.9999999999746 	8.032527204761396e-12 	101324.999999992
0.8095595595595589 	299.9999999999505 	9.092366229752911e-12 	101324.9999999918
0.8120620620620614 	299.9999999999361 	9.125366193542318e-12 	101324.9999999917
0.8145645645645638 	299.9999999999959 	9.13443469834241e-12 	101324.9999999919
0.8170670670670666 	299.9999999999916 	9.499824300142414e-12 	101324.9999999918
0.8195695695695689 	299.9999999999732 	7.375105349837057e-12 	101324.9999999918
0.8220720720720714 	299.9999999999372 	8.729037087444146e-12 	101324.9999999918
0.8245745745745739 	299.9999999999949 	5.748680384519242e-12 	101324.999999992
0.8270770770770765 	299.9999999999692 	7.362778980535885e-12 	101324.9999999922
0.8295795795795788 	299.9999999999492 	6.462231559318318e-12 	101324.9999999922
0.8320820820820815 	300.0000000000177 	6.943686070494499e-12 	101324.9999999923
0.834584584584584 	300.0000000000033 	6.589679996102656e-12 	101324.9999999926
0.8370870870870865 	299.9999999999562 	7.036941677020135e-12 	101324.9999999927
0.8395895895895891 	299.9999999999278 	8.088963039921898e-12 	101324.9999999928
0.8420920920920915 	299.9999999999462 	7.591334887262213e-12 	101324.9999999929
0.844594594594594 	299.999999999944 	7.987048418273132e-12 	101324.9999999928
0.8470970970970964 	299.9999999999598 	7.660194197088001e-12 	101324.9999999927
0.8495995995995991 	299.9999999999997 	6.931825959328125e-12 	101324.9999999926
0.8521021021021015 	299.9999999999815 	6.991130457717361e-12 	101324.9999999925
0.8546046046046039 	299.999999999964 	5.793806820690073e-12 	101324.9999999925
0.8571071071071066 	299.9999999999998 	6.889912590968966e-12 	101324.9999999924
0.8596096096096089 	299.9999999999689 	5.653659830001732e-12 	101324.9999999927
0.8621121121121116 	299.9999999999411 	8.510425796551108e-12 	101324.999999993
0.8646146146146139 	300.0000000000032 	5.983552515063953e-12 	101324.999999993
0.8671171171171166 	299.9999999999756 	7.461509749312505e-12 	101324.9999999933
0.8696196196196189 	299.9999999999364 	6.574809105996661e-12 	101324.9999999936
0.8721221221221216 	299.9999999999773 	7.205978968598911e-12 	101324.9999999936
0.874624624624624 	300.0000000000098 	6.856474709591358e-12 	101324.9999999935
0.8771271271271264 	299.9999999999997 	6.688595063617635e-12 	101324.9999999933
0.879629629629629 	299.9999999999961 	6.99969605865091e-12 	101324.9999999932
0.8821321321321317 	299.9999999999854 	5.167083182901168e-12 	101324.9999999931
0.8846346346346339 	299.9999999999271 	7.394995885162488e-12 	101324.9999999931
0.8871371371371364 	299.9999999999519 	5.727707879372803e-12 	101324.9999999931
0.8896396396396391 	299.9999999999467 	7.813740791550025e-12 	101324.999999993
0.8921421421421414 	299.9999999999569 	6.899630158701284e-12 	101324.9999999932
0.8946446446446441 	299.9999999999905 	7.623975611617103e-12 	101324.9999999933
0.8971471471471464 	300.0000000000063 	7.174400128427818e-12 	101324.9999999933
0.8996496496496489 	299.9999999999828 	7.084579983167808e-12 	101324.9999999934
0.9021521521521517 	299.9999999999599 	7.890990406009336e-12 	101324.9999999934
0.9046546546546541 	299.9999999999866 	6.524068417691619e-12 	101324.9999999934
0.9071571571571564 	299.9999999999446 	6.346242947005532e-12 	101324.9999999931
0.9096596596596589 	299.9999999999381 	5.615460738763588e-12 	101324.999999993
0.9121621621621616 	300.0000000000078 	5.523443542902103e-12 	101324.9999999931
0.9146646646646639 	299.9999999999699 	5.287978945005258e-12 	101324.9999999933
0.9171671671671666 	299.9999999999317 	4.98613221618357e-12 	101324.9999999933
0.9196696696696689 	299.9999999999921 	5.812050411069175e-12 	101324.9999999931
0.9221721721721714 	299.9999999999966 	4.230823239019569e-12 	101324.999999993
0.9246746746746741 	299.999999999937 	6.798931688323634e-12 	101324.9999999932
0.9271771771771765 	299.9999999999417 	4.866032135888461e-12 	101324.9999999933
0.9296796796796791 	299.9999999999894 	6.844848846354949e-12 	101324.9999999935
0.9321821821821816 	299.9999999999775 	5.332374646705172e-12 	101324.9999999937
0.9346846846846838 	299.999999999955 	6.709326157131808e-12 	101324.9999999937
0.9371871871871866 	300.0000000000143 	6.299623533124118e-12 	101324.9999999935
0.9396896896896891 	300.0000000000135 	6.320122869339448e-12 	101324.9999999934
0.9421921921921914 	300.0000000000086 	6.939309420935759e-12 	101324.9999999935
0.9446946946946939 	299.9999999999643 	6.223631817010876e-12 	101324.9999999935
0.9471971971971965 	299.9999999999192 	7.935473702710353e-12 	101324.9999999936
0.9496996996996991 	299.999999999951 	5.900327722731878e-12 	101324.9999999935
0.9522022022022016 	299.9999999999726 	6.938528793433696e-12 	101324.9999999934
0.9547047047047038 	299.9999999999782 	5.219026887066015e-12 	101324.9999999933
0.9572072072072064 	299.9999999999729 	5.536764044949896e-12 	101324.9999999931
0.9597097097097093 	299.9999999999599 	5.205164385137611e-12 	101324.999999993
0.9622122122122114 	299.9999999999495 	5.162255424834999e-12 	101324.9999999931
0.964714714714714 	299.9999999999509 	6.040350545019957e-12 	101324.9999999931
0.9672172172172167 	299.9999999999561 	5.440109770738172e-12 	101324.999999993
0.969719719719719 	299.9999999999837 	6.614159669621208e-12 	101324.999999993
0.9722222222222214 	299.9999999999654 	6.430718988817746e-12 	101324.999999993
0.9747247247247239 	299.9999999999609 	6.714054045587589e-12 	101324.9999999928
0.9772272272272267 	299.9999999999985 	6.914168011277168e-12 	101324.9999999928
0.9797297297297292 	299.9999999999837 	6.535318065692381e-12 	101324.9999999929
0.9822322322322313 	299.9999999999931 	6.975504148543449e-12 	101324.9999999929
0.9847347347347344 	299.9999999999913 	4.984218336642215e-12 	101324.999999993
0.9872372372372363 	299.9999999999422 	6.958735698764367e-12 	101324.9999999932
0.9897397397397389 	299.9999999999706 	5.189803141381926e-12 	101324.9999999933
0.9922422422422417 	299.9999999999544 	6.942185602790439e-12 	101324.9999999933
0.9947447447447441 	299.9999999999512 	5.713513442643545e-12 	101324.9999999932
0.9972472472472468 	299.9999999999558 	6.898645618818143e-12 	101324.9999999933
0.999749749749749 	299.9999999999523 	6.190031197613533e-12 	101324.9999999935
1.002252252252252 	299.9999999999764 	5.736507244666466e-12 	101324.9999999938
1.004754754754754 	299.9999999999893 	5.394337091979078e-12 	101324.9999999935
1.007257257257256 	299.9999999999656 	4.436657188942214e-12 	101324.9999999934
1.009759759759759 	299.9999999999544 	6.206336418545105e-12 	101324.9999999935
1.012262262262261 	299.9999999999486 	4.338018692243416e-12 	101324.9999999935
1.014764764764764 	299.9999999999207 	5.796119545113837e-12 	101324.9999999937
1.017267267267267 	299.9999999999105 	4.67022033837822e-12 	101324.9999999938
1.019769769769769 	299.999999999955 	6.246345341672796e-12 	101324.9999999936
1.022272272272272 	299.9999999999656 	6.401401951448705e-12 	101324.9999999933
1.024774774774774 	299.9999999999703 	6.987060856550482e-12 	101324.9999999933
1.027277277277277 	299.999999999971 	7.834950309455595e-12 	101324.9999999932
1.029779779779779 	300.0000000000003 	7.675894583687009e-12 	101324.999999993
1.032282282282282 	300.0000000000011 	8.565321863636746e-12 	101324.9999999929
1.034784784784784 	299.999999999989 	8.072475231490992e-12 	101324.9999999929
1.037287287287286 	299.9999999999563 	8.018042657090558e-12 	101324.9999999928
1.039789789789789 	299.9999999999682 	7.884010281362087e-12 	101324.9999999929
1.042292292292291 	300.0000000000103 	7.845733131168139e-12 	101324.9999999928
1.044794794794794 	300.0000000000242 	8.125317839653116e-12 	101324.9999999928
1.047297297297296 	300.0000000000383 	6.867829759215453e-12 	101324.999999993
1.049799799799799 	299.9999999999911 	8.21416061567213e-12 	101324.999999993
1.052302302302302 	299.9999999999574 	5.995534464762546e-12 	101324.9999999932
1.054804804804804 	299.9999999999337 	6.908176730157988e-12 	101324.9999999933
1.057307307307306 	299.9999999999141 	5.186784349174981e-12 	101324.9999999933
1.059809809809809 	299.999999999947 	6.172333321261998e-12 	101324.9999999932
1.062312312312312 	299.9999999999396 	5.602830336180183e-12 	101324.9999999932
1.064814814814814 	299.9999999999338 	6.186399266241225e-12 	101324.999999993
1.067317317317317 	299.9999999999156 	6.342895819060554e-12 	101324.9999999931
1.069819819819819 	299.9999999999172 	6.309128259005938e-12 	101324.999999993
1.072322322322321 	299.9999999999841 	8.356994362234598e-12 	101324.9999999926
1.074824824824824 	300.0000000000162 	7.379893336717968e-12 	101324.9999999926
1.077327327327327 	300.0000000000349 	8.784156726519026e-12 	101324.9999999928
1.079829829829829 	300.0000000000339 	7.409736789191349e-12 	101324.9999999928
1.082332332332332 	299.999999999995 	7.47689233429245e-12 	101324.9999999928
1.084834834834834 	299.9999999999672 	6.702253783603058e-12 	101324.9999999928
1.087337337337337 	299.9999999999296 	6.107897950184856e-12 	101324.9999999927
1.089839839839839 	299.9999999999268 	6.728926017818798e-12 	101324.9999999926
1.092342342342342 	299.9999999999731 	4.828392480613087e-12 	101324.9999999926
1.094844844844844 	299.9999999999776 	5.966530332242559e-12 	101324.9999999927
1.097347347347347 	299.999999999942 	4.895914023780328e-12 	101324.9999999926
1.099849849849849 	299.9999999999244 	7.50476251793366e-12 	101324.9999999926
1.102352352352352 	299.9999999999519 	6.222607547441332e-12 	101324.9999999925
1.104854854854854 	299.9999999999733 	8.706931261904249e-12 	101324.9999999925
1.107357357357357 	299.9999999999549 	7.406788298925157e-12 	101324.9999999924
1.109859859859859 	299.9999999999402 	8.541934918903755e-12 	101324.9999999924
1.112362362362362 	300.0000000000174 	7.151649404141724e-12 	101324.9999999925
1.114864864864865 	300.0000000000211 	6.825920849269138e-12 	101324.9999999923
1.117367367367367 	299.9999999999628 	6.741638528113483e-12 	101324.9999999921
1.119869869869869 	299.9999999999201 	5.291487740297724e-12 	101324.9999999922
1.122372372372372 	299.9999999999529 	6.551609489577546e-12 	101324.9999999924
1.124874874874874 	299.9999999999478 	6.283409190687519e-12 	101324.9999999926
1.127377377377377 	299.999999999965 	7.749663307489479e-12 	101324.9999999928
1.129879879879879 	300.0000000000221 	6.881205388001842e-12 	101324.9999999926
1.132382382382382 	300.0000000000264 	6.339167095282439e-12 	101324.9999999926
1.134884884884884 	300.0000000000038 	5.374804037228382e-12 	101324.9999999926
1.137387387387387 	300.0000000000182 	5.428962026279486e-12 	101324.9999999925
1.139889889889889 	299.9999999999549 	7.06087639828242e-12 	101324.9999999925
1.142392392392392 	299.9999999999413 	6.672430159543445e-12 	101324.9999999925
1.144894894894894 	300.0000000000138 	8.275989840500309e-12 	101324.9999999925
1.147397397397397 	300.0000000000014 	7.360226417725601e-12 	101324.9999999924
1.149899899899899 	299.9999999999346 	8.086219297741054e-12 	101324.9999999922
1.152402402402402 	299.9999999999209 	7.294314156064149e-12 	101324.9999999921
1.154904904904904 	299.9999999999727 	7.936569587320598e-12 	101324.9999999921
1.157407407407407 	299.9999999999752 	7.401895631365198e-12 	101324.9999999921
1.159909909909909 	299.9999999999351 	7.560515418172571e-12 	101324.9999999922
1.162412412412412 	299.9999999999192 	8.866013970334331e-12 	101324.9999999922
1.164914914914914 	299.9999999999593 	7.894360725096665e-12 	101324.999999992
1.167417417417417 	299.999999999965 	9.082216711435581e-12 	101324.999999992
1.169919919919919 	300.0000000000107 	7.933130878572054e-12 	101324.9999999921
1.172422422422422 	300.0000000000355 	8.465467373857475e-12 	101324.9999999921
1.174924924924925 	299.9999999999842 	7.588072375600791e-12 	101324.9999999923
1.177427427427427 	299.9999999999631 	8.053662341671503e-12 	101324.9999999923
1.179929929929929 	300.0000000000044 	8.200666133997435e-12 	101324.9999999924
1.182432432432432 	300.0000000000259 	6.593483704048086e-12 	101324.9999999927
1.184934934934934 	299.999999999991 	7.327820010226771e-12 	101324.9999999927
1.187437437437437 	299.9999999999691 	6.267837438211701e-12 	101324.9999999925
1.189939939939939 	299.9999999999674 	6.930498911014742e-12 	101324.9999999923
1.192442442442442 	299.9999999999184 	6.173251609279979e-12 	101324.9999999925
1.194944944944944 	299.9999999999299 	7.431713384643958e-12 	101324.9999999928
1.197447447447447 	300.0000000000016 	7.214901258414904e-12 	101324.9999999928
1.199949949949949 	300.0000000000092 	7.241216216307302e-12 	101324.9999999926
1.202452452452452 	299.999999999946 	7.952891532756001e-12 	101324.9999999925
1.204954954954955 	299.9999999999457 	6.918655983311247e-12 	101324.9999999924
1.207457457457457 	299.9999999999905 	7.790989346729296e-12 	101324.9999999923
1.20995995995996 	299.9999999999802 	7.073238693003184e-12 	101324.9999999922
1.212462462462462 	299.9999999999734 	8.188292908252057e-12 	101324.9999999923
1.214964964964964 	299.9999999999768 	7.326398280495827e-12 	101324.9999999922
1.217467467467467 	299.9999999999776 	7.988092887274483e-12 	101324.9999999921
1.219969969969969 	299.9999999999673 	7.133861887959766e-12 	101324.9999999921
1.222472472472472 	300.0000000000121 	7.509964644759547e-12 	101324.999999992
1.224974974974975 	300.0000000000252 	8.05451342623272e-12 	101324.9999999918
1.227477477477477 	299.9999999999852 	7.148988232907625e-12 	101324.9999999919
1.229979979979979 	299.9999999999883 	8.46767586002129e-12 	101324.9999999919
1.232482482482482 	299.9999999999529 	7.480484095476386e-12 	101324.9999999918
1.234984984984984 	299.9999999999437 	8.539422453333284e-12 	101324.9999999918
1.237487487487487 	299.999999999981 	7.603960986996699e-12 	101324.999999992
1.239989989989989 	299.9999999999935 	7.898933109787651e-12 	101324.9999999923
1.242492492492492 	300.0000000000296 	7.55188665286871e-12 	101324.9999999923
1.244994994994994 	299.9999999999975 	6.064051223079351e-12 	101324.9999999925
1.247497497497497 	300.0000000000014 	6.844707899493308e-12 	101324.9999999926
1.249999999999999 	300.0000000000514 	6.124597011374386e-12 	101324.9999999928
